pressure,epsilon,muB,phase_index
6.850451e-08,1.5229449999999999e-05,894.0,1
1.0881167439782627e-07,2.0333003575040735e-05,896.3133197841682,1
1.4911883879565253e-07,2.5436557150081474e-05,898.6266395683366,1
2.0107689493031633e-07,3.115279816347028e-05,900.9399593525051,1
2.7005789324042004e-07,3.776422755129355e-05,903.2532791366734,1
3.390388915505238e-07,4.437565693911681e-05,905.5665989208417,1
4.365048880586149e-07,5.184829588489219e-05,907.8799187050099,1
5.405378860683827e-07,5.951948019904079e-05,910.1932384891783,1
6.698964253642484e-07,6.72079381503111e-05,912.5065582733467,1
8.895845785347756e-07,7.495800666909983e-05,914.8198780575151,1
1.1092727317053025e-06,8.270807518788858e-05,917.1331978416833,1
1.3289609572017108e-06,9.045814611754003e-05,919.4465176258516,1
1.5486492260382433e-06,9.820821849186232e-05,921.75983741002,1
1.7683374826818936e-06,0.00010595829123197001,924.0731571941884,1
1.9880253659651126e-06,0.00011370837517289064,926.3864769783568,1
2.2077132492483316e-06,0.00012145845911381129,928.699796762525,1
2.4274013013843084e-06,0.00012920852616945614,931.0131165466933,1
2.6470895702208407e-06,0.00013695857155504763,933.3264363308617,1
2.866777839057357e-06,0.0001447086169406385,935.6397561150301,1
3.0864661078938734e-06,0.00015245869487749442,937.9530758991984,1
3.3061543767303896e-06,0.00016020877881841507,940.2663956833667,1
3.553002411840188e-06,0.00016771929534237736,942.5797154675352,1
3.881070098118286e-06,0.00017451339988249046,944.8930352517034,1
4.209137784396385e-06,0.0001813075044226035,947.2063550358718,1
4.558247394791031e-06,0.00018789120998388207,949.5196748200401,1
4.918346077907319e-06,0.00019436503539987707,951.8329946042084,1
5.280404617870208e-06,0.00020082194443400304,954.1463143883768,1
5.671489833942133e-06,0.00020702831152761842,956.4596341725451,1
6.0625750500140575e-06,0.0002132346786212338,958.7729539567134,1
6.467660524149713e-06,0.0002193589053154762,961.0862737408818,1
6.888560576706594e-06,0.00022539034687807873,963.39959352505,1
7.309460629263504e-06,0.0002314217884406817,965.7129133092185,1
7.755624431439762e-06,0.0002372713755831528,968.0262330933867,1
8.205367726172246e-06,0.00024309519669512623,970.3395528775551,1
8.662960835352963e-06,0.00024886122769532615,972.6528726617234,1
9.140518330510397e-06,0.00025448028145107096,974.9661924458917,1
9.618075825667866e-06,0.00026009933520681615,977.2795122300602,1
1.0114115216158393e-05,0.0002655841928653622,979.5928320142284,1
1.0618514546324828e-05,0.0002710083494292908,981.9061517983968,1
1.1125377518162752e-05,0.00027641499947665015,984.2194715825651,1
1.1655744634013109e-05,0.000281654630232462,986.5327913667336,1
1.2186111749863427e-05,0.00028689426098827347,988.8461111509018,1
1.2729184296377224e-05,0.00029204407449431484,991.1594309350701,1
1.3284901541529053e-05,0.0002971045000775127,993.4727507192384,1
1.3840618786680925e-05,0.00030216492566071095,995.7860705034069,1
1.4418022733503407e-05,0.00030708297759257316,998.0993902875753,1
1.4997636572025697e-05,0.0003119865215390747,1000.4127100717435,1
1.5584615983436207e-05,0.0003168602982614839,1002.7260298559117,1
1.6187698451168883e-05,0.0003216689960968345,1005.0393496400801,1
1.6790780918901603e-05,0.0003264776939321855,1007.3526694242486,1
1.741853668681093e-05,0.0003310517094210438,1009.6659892084169,1
1.8055879420547142e-05,0.0003355345376094646,1011.9793089925852,1
1.8693222641997976e-05,0.00034001736579788544,1014.2926287767534,1
1.933056923126716e-05,0.0003445001939863062,1016.6059485609218,1
1.9967915820536388e-05,0.00034898302217472736,1018.9192683450902,1
2.0621565442128563e-05,0.00035337059184389197,1021.2325881292586,1
2.1289509541076347e-05,0.0003576746389683263,1023.5459079134268,1
2.1957453640024125e-05,0.0003619786860927606,1025.859227697595,1
2.264574364613862e-05,0.0003661558202351353,1028.1725474817636,1
2.333535198486519e-05,0.00037032473092884474,1030.485867265932,1
2.4031877287510324e-05,0.00037444850087400746,1032.7991870501003,1
2.474150740896882e-05,0.00037848674755524084,1035.1125068342685,1
2.5451137530427318e-05,0.0003825249942364742,1037.4258266184368,1
2.6175646049360096e-05,0.00038646764583711104,1039.739146402605,1
2.69050666215722e-05,0.00039037873704087493,1042.0524661867735,1
2.763731776755606e-05,0.0003942704903596414,1044.365785970942,1
2.8384639579364606e-05,0.00039805928405748205,1046.6791057551102,1
2.9131961391173146e-05,0.00040184807775532264,1048.9924255392784,1
2.9889639939638886e-05,0.000405570017292603,1051.305745323447,1
3.065531023286886e-05,0.0004092403690174942,1053.6190651076154,1
3.142098052609883e-05,0.0004129107207423853,1055.9323848917836,1
3.220387911703448e-05,0.00041647002237105065,1058.2457046759519,1
3.2987296428542046e-05,0.00042002598043261495,1060.5590244601203,1
3.378024410091842e-05,0.0004235204963812396,1062.8723442442886,1
3.458893443106797e-05,0.00042691351961933867,1065.1856640284568,1
3.5397624761217526e-05,0.0004303065428574378,1067.4989838126253,1
3.620631207086108e-05,0.000433699535890477,1069.8123035967935,1
3.7014998545477724e-05,0.00043709252057324666,1072.125623380962,1
3.797592078734797e-05,0.0004282581013075192,1074.4389431651302,0
3.897653259993507e-05,0.00043200188711520134,1076.7522629492987,0
4.0002194212751764e-05,0.000435645583097019,1079.065582733467,0
4.102785582556846e-05,0.0004392892790788367,1081.3789025176352,0
4.205351743838522e-05,0.0004429329750606547,1083.6922223018037,0
4.3086623937914424e-05,0.000446550551104296,1086.005542085972,0
4.414352798825637e-05,0.0004500846348692789,1088.3188618701402,0
4.520043203859832e-05,0.00045361871863426194,1090.6321816543086,0
4.6257336088940276e-05,0.0004571528023992449,1092.9455014384769,0
4.7318875407720045e-05,0.0004606716474862804,1095.2588212226453,0
4.840562974948694e-05,0.00046410759691799226,1097.5721410068136,0
4.9492384091253824e-05,0.00046754354634970414,1099.885460790982,0
5.057913843302072e-05,0.000470979495781416,1102.1987805751503,0
5.166589277478761e-05,0.0004744154452131278,1104.5121003593185,0
5.278160634434445e-05,0.000477771055496722,1106.825420143487,0
5.3899919762286075e-05,0.0004811194532397747,1109.1387399276553,0
5.5018233180227704e-05,0.0004844678509828274,1111.4520597118235,0
5.6136546598169415e-05,0.0004878162487258804,1113.765379495992,0
5.7270889034544745e-05,0.0004911235019710316,1116.0786992801602,0
5.841939321932806e-05,0.0004943944037683358,1118.3920190643287,0
5.95678974041113e-05,0.0004976653055656397,1120.705338848497,0
6.0716401588894544e-05,0.0005009362073629438,1123.0186586326654,0
6.186490577367787e-05,0.0005042071091602479,1125.3319784168339,0
6.304340956991546e-05,0.000507406849864702,1127.645298201002,0
6.422197393716922e-05,0.0005106064468906384,1129.9586179851703,0
6.540053830442296e-05,0.0005138060439165747,1132.2719377693386,0
6.65791026716767e-05,0.000517005640942511,1134.5852575535068,0
6.776772668339067e-05,0.0005201859538863209,1136.8985773376753,0
6.897781466630931e-05,0.0005233251209441981,1139.2118971218438,0
7.018790264922794e-05,0.0005264642880020751,1141.525216906012,0
7.139799063214659e-05,0.0005296034550599522,1143.8385366901803,0
7.260807861506523e-05,0.0005327426221178293,1146.1518564743487,0
7.383342722215634e-05,0.0005358538388248403,1148.4651762585172,0
7.507371883386104e-05,0.0005389376869119815,1150.7784960426854,0
7.631401044556573e-05,0.0005420215349991226,1153.0918158268537,0
7.755430205727043e-05,0.0005451053830862638,1155.405135611022,0
7.879459366897511e-05,0.0005481892311734049,1157.7184553951902,0
8.005184173722236e-05,0.0005512467793319257,1160.0317751793586,0
8.132263662647153e-05,0.0005542833159999562,1162.3450949635271,0
8.259343151572068e-05,0.0005573198526679865,1164.6584147476954,0
8.386422640496984e-05,0.0005603563893360169,1166.9717345318636,0
8.513502129421901e-05,0.0005633929260040472,1169.285054316032,0
8.642053584890429e-05,0.000566408985868936,1171.5983741002005,0
8.772208268293764e-05,0.000569402742928808,1173.9116938843688,0
8.9023629516971e-05,0.00057239649998868,1176.225013668537,0
9.032517635100444e-05,0.0005753902570485522,1178.5383334527055,0
9.16267231850378e-05,0.0005783840141084242,1180.8516532368737,0
9.293669249389878e-05,0.0005813680737589748,1183.164973021042,0
9.426869677643677e-05,0.0005843267629378402,1185.4782928052105,0
9.560070105897474e-05,0.0005872854521167057,1187.7916125893787,0
9.693270534151282e-05,0.0005902441412955713,1190.1049323735472,0
9.826470962405078e-05,0.0005932028304744369,1192.4182521577154,0
9.959671390658877e-05,0.0005961615196533023,1194.7315719418839,0
0.00010095852354855694,0.000599091095592422,1197.0448917260521,0
0.00010232163896873453,0.0006020193960752216,1199.3582115102204,0
0.00010368475438891224,0.0006049476965580212,1201.6715312943888,0
0.00010504786980908985,0.0006078759970408207,1203.984851078557,0
0.00010641098522926745,0.0006108042975236203,1206.2981708627253,0
0.00010779011071191622,0.0006137188781631343,1208.6114906468938,0
0.00010918349037197384,0.0006166212436672881,1210.924810431062,0
0.00011057687003203155,0.0006195236091714421,1213.2381302152305,0
0.00011197024969208916,0.0006224259746755959,1215.5514499993988,0
0.00011336362935214679,0.0006253283401797497,1217.8647697835672,0
0.00011475700901220441,0.0006282307056839036,1220.1780895677355,0
0.00011618057116743322,0.0006311113126663052,1222.4914093519037,0
0.00011760434690958127,0.0006339917656741732,1224.8047291360722,0
0.00011902812265172921,0.000636872218682041,1227.1180489202404,0
0.00012045189839387717,0.0006397526716899088,1229.4313687044087,0
0.00012187567413602511,0.0006426331246977766,1231.7446884885771,0
0.00012331042054392462,0.0006455078227934867,1234.0580082727454,0
0.000124765105104788,0.0006483720618777305,1236.3713280569139,0
0.0001262197896656513,0.0006512363009619741,1238.684647841082,0
0.00012767447422651457,0.0006541005400462178,1240.9979676252506,0
0.00012912915878737796,0.0006569647791304615,1243.311287409419,0
0.00013058384334824124,0.0006598290182147051,1245.6246071935873,0
0.00013205757175769497,0.0006626852078346692,1247.9379269777555,0
0.00013354273485513573,0.0006655365642344958,1250.2512467619238,0
0.00013502789795257652,0.0006683879206343226,1252.564566546092,0
0.00013651306105001736,0.0006712392770341494,1254.8778863302605,0
0.00013799822414745812,0.0006740906334339761,1257.191206114429,0
0.00013948338724489891,0.0006769419898338027,1259.5045258985972,0
0.00014099350762830821,0.0006797853324036733,1261.8178456827654,0
0.00014250961419074012,0.0006826267528005625,1264.131165466934,0
0.00014402572075317212,0.0006854681731974521,1266.4444852511024,0
0.000145541827315604,0.0006883095935943414,1268.7578050352706,0
0.00014705793387803588,0.0006911510139912307,1271.0711248194389,0
0.00014857404044046776,0.00069399243438812,1273.384444603607,0
0.00015011731865177216,0.0006968276619477702,1275.6977643877754,0
0.00015166343665566048,0.0006996622422749558,1278.0110841719438,0
0.00015320955465954872,0.0007024968226021415,1280.3244039561123,0
0.00015475567266343693,0.000705331402929327,1282.6377237402805,0
0.00015630179066732525,0.0007081659832565126,1284.951043524449,0
0.00015784790867121335,0.0007110005635836981,1287.2643633086172,0
0.00015942296774127524,0.0007138322739153055,1289.5776830927857,0
0.00016100038941693764,0.0007166637499546588,1291.891002876954,0
0.00016257781109260005,0.0007194952259940119,1294.2043226611222,0
0.00016415523276826257,0.0007223267020333654,1296.5176424452907,0
0.00016573265444392484,0.0007251581780727185,1298.8309622294587,0
0.00016731007611958735,0.000727989654112072,1301.1442820136272,0
0.00016891398818611827,0.0007308199405235565,1303.4576017977956,0
0.0001705217361435244,0.0007336500546732309,1305.7709215819639,0
0.00017212948410093063,0.0007364801688229052,1308.0842413661323,0
0.00017373723205833664,0.0007393102829725793,1310.3975611503006,0
0.00017534498001574284,0.0007421403971222538,1312.710880934469,0
0.000176952727973149,0.0007449705112719282,1315.0242007186373,0
0.00017858357861764943,0.0007478025606917534,1317.3375205028055,0
0.00018022200384328442,0.0007506352446204876,1319.650840286974,0
0.00018186042906891914,0.0007534679285492214,1321.964160071142,0
0.00018349885429455414,0.0007563006124779557,1324.2774798553105,0
0.000185137279520189,0.0007591332964066896,1326.590799639479,0
0.00018677570474582385,0.0007619659803354237,1328.9041194236472,0
0.0001884316019850194,0.0007648004176103134,1331.2174392078157,0
0.00019010058081512027,0.0007676361676450083,1333.530758991984,0
0.00019176955964522114,0.0007704719176797032,1335.8440787761524,0
0.00019343853847532196,0.000773307667714398,1338.1573985603206,0
0.0001951075173054228,0.0007761434177490929,1340.470718344489,0
0.0001967764961355238,0.000778979167783788,1342.7840381286574,0
0.00019845550443698263,0.0007818171992804595,1345.0973579128256,0
0.0002001548749450251,0.0007846598626862742,1347.4106776969938,0
0.0002018542454530677,0.000787502526092089,1349.7239974811623,0
0.00020355361596111006,0.0007903451894979033,1352.0373172653306,0
0.00020525298646915265,0.0007931878529037181,1354.350637049499,0
0.00020695235697719514,0.0007960305163095328,1356.6639568336673,0
0.00020865282733125836,0.0007988734504616903,1358.9772766178357,0
0.00021038328255677553,0.0008017237659146232,1361.2905964020042,0
0.00021211373778229245,0.000804574081367556,1363.6039161861722,0
0.0002138441930078096,0.000807424396820489,1365.9172359703407,0
0.00021557464823332662,0.0008102747122734218,1368.230555754509,0
0.00021730510345884367,0.0008131250277263547,1370.5438755386772,0
0.00021903555868436084,0.0008159753431792876,1372.8571953228457,0
0.00022078677877885683,0.0008188320596503242,1375.170515107014,0
0.0002225472952926558,0.0008216916418533007,1377.4838348911824,0
0.0002243078118064546,0.000824551224056277,1379.7971546753506,0
0.00022606832832025337,0.0008274108062592534,1382.110474459519,0
0.00022782884483405234,0.0008302703884622299,1384.4237942436876,0
0.00022958936134785115,0.0008331299706652061,1386.7371140278558,0
0.00023135912558027517,0.0008359931117996085,1389.050433812024,0
0.00023315075512703008,0.0008388646676747118,1391.3637535961923,0
0.00023494238467378493,0.0008417362235498153,1393.6770733803605,0
0.00023673401422053995,0.0008446077794249191,1395.990393164529,0
0.0002385256437672948,0.0008474793353000226,1398.3037129486975,0
0.00024031727331404968,0.0008503508911751261,1400.6170327328657,0
0.0002421089028608047,0.0008532224470502298,1402.9303525170342,0
0.00024392685141752459,0.0008561046151247707,1405.2436723012024,0
0.00024574897500014427,0.000858988466629181,1407.556992085371,0
0.0002475710985827639,0.0008618723181335912,1409.8703118695391,0
0.00024939322216538346,0.0008647561696380015,1412.1836316537074,0
0.0002512153457480032,0.000867640021142412,1414.4969514378759,0
0.00025303746933062266,0.0008705238726468219,1416.8102712220439,0
0.0002548714768994897,0.0008734132554233702,1419.1235910062123,0
0.00025672426796395306,0.0008763113807736377,1421.4369107903808,0
0.0002585770590284164,0.0008792095061239054,1423.750230574549,0
0.00026042985009287983,0.0008821076314741731,1426.0635503587175,0
0.000262282641157343,0.0008850057568244404,1428.3768701428858,0
0.00026413543222180645,0.0008879038821747082,1430.6901899270542,0
0.0002659882232862698,0.0008908020075249758,1433.0035097112225,0
0.00026786767026594694,0.000893713538158071,1435.3168294953907,0
0.0002697509135467821,0.000896626977954304,1437.6301492795592,0
0.000271634156827617,0.0008995404177505365,1439.9434690637272,0
0.00027351740010845215,0.0009024538575467695,1442.2567888478957,0
0.0002754006433892872,0.0009053672973430023,1444.5701086320641,0
0.0002772838866701223,0.000908280737139235,1446.8834284162324,0
0.00027917717507149037,0.0009111997852888424,1449.1967482004009,0
0.0002810910127068762,0.0009141303064083922,1451.510067984569,0
0.00028300485034226205,0.0009170608275279418,1453.8233877687376,0
0.00028491868797764783,0.0009199913486474915,1456.1367075529058,0
0.0002868325256130336,0.0009229218697670413,1458.450027337074,0
0.0002887463632484196,0.0009258523908865911,1460.7633471212425,0
0.0002906602008838054,0.0009287829120061409,1463.0766669054108,0
0.00029259710317466436,0.0009317266190213323,1465.389986689579,0
0.0002945416581534633,0.0009346747010225138,1467.7033064737475,0
0.00029648621313226194,0.0009376227830236948,1470.0166262579157,0
0.0002984307681110609,0.0009405708650248763,1472.3299460420842,0
0.00030037532308985974,0.0009435189470260575,1474.6432658262524,0
0.00030231987806865853,0.0009464670290272387,1476.956585610421,0
0.00030426889064542363,0.0009494177974603484,1479.2699053945894,0
0.0003062443220899503,0.0009523844875827621,1481.5832251787574,0
0.00030821975353447726,0.0009553511777051762,1483.8965449629259,0
0.00031019518497900405,0.00095831786782759,1486.2098647470941,0
0.0003121706164235309,0.000961284557950004,1488.5231845312624,0
0.00031414604786805784,0.0009642512480724181,1490.8365043154308,0
0.00031612147931258446,0.0009672179381948319,1493.149824099599,0
0.0003181123491516664,0.0009701944410757432,1495.4631438837675,0
0.0003201179638556668,0.0009731803159025522,1497.7764636679358,0
0.00032212357855966725,0.0009761661907293613,1500.0897834521043,0
0.0003241291932636678,0.0009791520655561706,1502.4031032362727,0
0.00032613480796766814,0.0009821379403829795,1504.7164230204407,0
0.0003281404226716687,0.0009851238152097889,1507.0297428046092,0
0.00033014603737566915,0.0009881096900365978,1509.3430625887775,0
0.00033217783120567885,0.0009911128945258641,1511.6563823729457,0
0.0003342141677587597,0.0009941191061383415,1513.9697021571142,0
0.00033625050431184046,0.0009971253177508185,1516.2830219412826,0
0.00033828684086492113,0.0010001315293632954,1518.5963417254509,0
0.0003403231774180019,0.0010031377409757726,1520.9096615096191,0
0.00034235951397108263,0.0010061439525882495,1523.2229812937876,0
0.0003444010835446752,0.0010091538532099134,1525.536301077956,0
0.00034646819605391296,0.001012181760281969,1527.8496208621243,0
0.00034853530856315064,0.0010152096673540245,1530.1629406462926,0
0.00035060242107238853,0.0010182375744260804,1532.476260430461,0
0.0003526695335816261,0.0010212654814981356,1534.789580214629,0
0.000354736646090864,0.0010242933885701916,1537.1028999987975,0
0.00035680375860010156,0.0010273212956422469,1539.4162197829658,0
0.00035888517633577446,0.0010303592303595357,1541.7295395671342,0
0.0003609828094294598,0.0010334085316817654,1544.0428593513027,0
0.00036308044252314497,0.0010364578330039945,1546.356179135471,0
0.0003651780756168303,0.0010395071343262243,1548.6694989196394,0
0.00036727570871051537,0.0010425564356484533,1550.9828187038074,0
0.00036937334180420076,0.0010456057369706828,1553.296138487976,0
0.0003714709748978861,0.0010486550382929126,1555.6094582721444,0
0.0003735917142969295,0.0010517214272649656,1557.9227780563124,0
0.0003757202997524733,0.0010547936185781508,1560.2360978404809,0
0.00037784888520801693,0.0010578658098913353,1562.549417624649,0
0.0003799774706635608,0.0010609380012045202,1564.8627374088176,0
0.00038210605611910476,0.0010640101925177053,1567.176057192986,0
0.0003842346415746483,0.00106708238383089,1569.4893769771543,0
0.0003863634692778054,0.001070154761405947,1571.8026967613227,0
0.000388522338625507,0.001073250237714053,1574.1160165454908,0
0.00039068120797320906,0.0010763457140221596,1576.4293363296592,0
0.000392840077320911,0.0010794411903302663,1578.7426561138277,0
0.000394998946668613,0.001082536666638373,1581.0559758979962,0
0.00039715781601631467,0.001085632142946479,1583.3692956821642,0
0.0003993166853640163,0.0010887276192545852,1585.6826154663324,0
0.00040148331869088223,0.001091828919112375,1587.995935250501,0
0.00040367291729304517,0.001094947444598783,1590.3092550346694,0
0.0004058625158952081,0.001098065970085191,1592.6225748188378,0
0.0004080521144973707,0.0011011844955715986,1594.935894603006,0
0.00041024171309953357,0.0011043030210580065,1597.2492143871746,0
0.00041243131170169624,0.001107421546544414,1599.5625341713426,0
