pressure,epsilon,muB,phase_index
1.787387e-08,6.28095e-06,732.0,1
4.2490065305980795e-08,1.136978581172071e-05,734.6379690827655,1
6.710626061196239e-08,1.6458621623441585e-05,737.2759381655311,1
1.1408081289806068e-07,2.3148944843937748e-05,739.9139072482966,1
1.6951389053074877e-07,3.0445136458583823e-05,742.5518763310622,1
2.4171505106691594e-07,3.79488946225962e-05,745.1898454138277,1
3.3432412128030095e-07,4.5705275547115585e-05,747.8278144965932,1
4.3344261017193677e-07,5.338638118737457e-05,750.4657835793587,1
5.629178259107831e-07,6.071643992842799e-05,753.1037526621242,1
6.923930416496336e-07,6.804649866948164e-05,755.7417217448898,1
8.528295818553132e-07,7.488558753127596e-05,758.3796908276553,1
1.0166264900408476e-06,8.16713892844037e-05,761.0176599104209,1
1.2003998589385482e-06,8.816075066630117e-05,763.6556289931864,1
1.3960259305167643e-06,9.447422405515974e-05,766.2935980759519,1
1.6021549560259338e-06,0.00010065126632840003,768.9315671587174,1
1.8275228100277827e-06,0.0001065784003518571,771.5695362414829,1
2.0550963418737308e-06,0.00011248063961572187,774.2075053242484,1
2.3085044882408523e-06,0.00011809129209170479,776.8454744070141,1
2.5619126346079573e-06,0.00012370194456768737,779.4834434897796,1
2.83674068372005e-06,0.00012910066792767264,782.1214125725451,1
3.116784403915838e-06,0.00013444778729228691,784.7593816553106,1
3.41031279162587e-06,0.00013967648118184958,787.3973507380763,1
3.715813353131859e-06,0.0001448000326666995,790.0353198208418,1
4.027554405055748e-06,0.00014987434428973226,792.6732889036073,1
4.357505422666863e-06,0.00015480497230232923,795.3112579863728,1
4.687456440277978e-06,0.0001597356003149262,797.9492270691383,1
5.040807353485009e-06,0.00016450043217412235,800.5871961519039,1
5.394617482465196e-06,0.00016926201033466544,803.2251652346694,1
5.764104023592281e-06,0.00017391881824209144,805.8631343174349,1
6.140110024434857e-06,0.00017853205460788036,808.5011034002003,1
6.525802128136333e-06,0.0001830914887833905,811.1390724829658,1
6.924240099074231e-06,0.00018758012507617047,813.7770415657315,1
7.32607486300161e-06,0.00019205333680651426,816.415010648497,1
7.746104171220405e-06,0.00019644392858171776,819.0529797312624,1
8.1661334794392e-06,0.00020083452035692126,821.6909488140279,1
8.605088350793334e-06,0.0002051460841848272,824.3289178967937,1
9.046554675101707e-06,0.00020944716087582221,826.9668869795591,1
9.500254817173181e-06,0.0002136927897898639,829.6048560623246,1
9.961830379799477e-06,0.00021790272464904936,832.2428251450901,1
1.0430269825044413e-05,0.00022208228678727757,834.8807942278556,1
1.0912402641071219e-05,0.0002262012556792593,837.5187633106214,1
1.1395713039813637e-05,0.00023031494530179012,840.1567323933868,1
1.1897665796882258e-05,0.0002343450586018337,842.7947014761523,1
1.2399618553950875e-05,0.00023837517190187734,845.4326705589178,1
1.2916811218782317e-05,0.00024233740273233467,848.0706396416834,1
1.3438179428300088e-05,0.00024628103461261496,850.7086087244489,1
1.396921606647366e-05,0.00025018182287566234,853.3465778072144,1
1.4509524894005687e-05,0.0002540415233729593,855.9845468899799,1
1.505422245914557e-05,0.0002578819362503674,858.6225159727454,1
1.5613128968711132e-05,0.00026165990367225017,861.260485055511,1
1.617203547827666e-05,0.00026543787109413285,863.8984541382765,1
1.674843908069534e-05,0.00026913936535590097,866.536423221042,1
1.7325543180316807e-05,0.0002728377980099382,869.1743923038075,1
1.7914862595683817e-05,0.00027648282641511797,871.8123613865732,1
1.8509746606923128e-05,0.00028010352691351637,874.4503304693387,1
1.9111826092034433e-05,0.00028369290252314004,877.0882995521042,1
1.972415147552596e-05,0.0002872376734781062,879.7262686348697,1
2.0338833477050585e-05,0.00029077218507069224,882.3642377176352,1
2.0968226520507643e-05,0.0002942426532298274,885.0022068004009,1
2.1597619563964663e-05,0.00029771312138896226,887.6401758831664,1
2.2241433265056034e-05,0.0003011207127470375,890.2781449659319,1
2.2887524652806954e-05,0.00030451837295948804,892.9161140486974,1
2.3543251355972994e-05,0.00030787404702600383,895.554083131463,1
2.4205698152037063e-05,0.00031120043810706834,898.1920522142285,1
2.4873214994856937e-05,0.00031450490279220396,900.830021296994,1
2.555177538540157e-05,0.0003177616075233321,903.4679903797595,1
2.6230957934590325e-05,0.0003210155714363629,906.105959462525,1
2.6925007600265927e-05,0.0003242040407005502,908.7439285452905,1
2.7619057265941576e-05,0.0003273925099647377,911.3818976280561,1
2.832492315187548e-05,0.00033053004492336705,914.0198667108216,1
2.903440493668526e-05,0.00033365199340051725,916.6578357935871,1
2.9751270649615455e-05,0.00033674204348096125,919.2958048763526,1
3.0475784461581907e-05,0.0003397990539525242,921.9337739591183,1
3.1203490505532166e-05,0.000342842399765386,924.5717430418838,1
3.194273297821068e-05,0.0003458363627758707,927.2097121246493,1
3.268197545088919e-05,0.0003488303257863554,929.8476812074148,1
3.3434789574152085e-05,0.000351766621710108,932.4856502901803,1
3.4188435358022546e-05,0.00035469938383787266,935.123619372946,1
3.4951517384054054e-05,0.0003575926276646141,937.7615884557115,1
3.571929388897781e-05,0.0003604662113526219,940.399557538477,1
3.649253470077345e-05,0.0003633173325892798,943.0375266212425,1
3.727420450953316e-05,0.000366133804246646,945.6754957040081,1
3.8057474033587975e-05,0.0003689437610608601,948.3134647867736,1
3.8852606277900015e-05,0.00037170540692745593,950.9514338695391,1
3.9647738522212055e-05,0.00037446705279405175,953.5894029523046,1
4.045414498130827e-05,0.00037718426258854794,956.2273720350701,1
4.1262629745794295e-05,0.0003798932809719428,958.8653411178357,1
4.207855589577324e-05,0.00038257371140635595,961.5033102006012,1
4.29000986072189e-05,0.0003852325644110267,964.1412792833667,1
4.3725433660713065e-05,0.0003878772870453249,966.7792483661322,1
4.455981448836157e-05,0.00039048830487729494,969.4172174488979,1
4.5394458003900735e-05,0.0003930983744206958,972.0551865316634,1
4.624139556438315e-05,0.0003956640631505935,974.6931556144289,1
4.708833312486557e-05,0.00039822975188049124,977.3311246971944,1
4.794452214429082e-05,0.0004007634428364646,979.9690937799598,1
4.8803853762847095e-05,0.0004032862645687674,982.6070628627253,1
4.9668929128778614e-05,0.0004057899958112395,985.2450319454911,1
5.054043057803672e-05,0.00040827236868427316,987.8830010282566,1
5.141429983644941e-05,0.00041074724827054333,990.520970111022,1
5.229779085518874e-05,0.00041319167835493677,993.1589391937877,1
5.3181281873928005e-05,0.00041563610843933004,995.7969082765532,1
5.407566491072128e-05,0.0004180476676793725,998.4348773593186,1
5.49709564444908e-05,0.00042045648518114845,1001.0728464420841,1
5.587379552608409e-05,0.0004228437464073113,1003.7108155248496,1
5.6780724900123735e-05,0.0004252193254986444,1006.3487846076151,1
5.769196803237989e-05,0.00042758332668001045,1008.9867536903807,1
5.861042972792635e-05,0.0004299279536007724,1011.6247227731462,1
5.953001005295924e-05,0.00043226970842390975,1014.2626918559117,1
6.0459705100183195e-05,0.00043458549354936693,1016.9006609386774,1
6.13894001474071e-05,0.000436901278674824,1019.5386300214429,1
6.232837838981046e-05,0.0004391950801493286,1022.1765991042084,1
6.326932437517236e-05,0.00044148422178704973,1024.814568186974,1
6.421636859617172e-05,0.00044375975799234435,1027.4525372697394,1
6.516838965506609e-05,0.00044602419065299025,1030.090506352505,1
6.612343752939408e-05,0.00044828234628363576,1032.7284754352706,1
6.708641934982734e-05,0.00045052404844401843,1035.3664445180361,1
6.804941928809189e-05,0.00045276571544271483,1038.0044136008016,1
6.90232299716099e-05,0.0004549864017827381,1040.6423826835671,1
6.999704065512799e-05,0.0004572070881227617,1043.2803517663328,1
7.097871005972449e-05,0.00045941380269260074,1045.918320849098,1
7.196332762325158e-05,0.0004616152758244713,1048.5562899318638,1
7.29527640219027e-05,0.0004638087673252608,1051.194259014629,1
7.394802579067873e-05,0.0004659926100304282,1053.8322280973948,1
7.494517305014729e-05,0.0004681735688595575,1056.4701971801603,1
7.595101307494521e-05,0.00047034123202101724,1059.1081662629258,1
7.695685309974315e-05,0.00047250889518247704,1061.7461353456913,1
7.797221762173276e-05,0.00047466328682928505,1064.3841044284568,1
7.89885963330164e-05,0.00047681626529618424,1067.0220735112225,1
8.001151284538263e-05,0.0004789608052132306,1069.660042593988,1
8.103828075823718e-05,0.0004811003740039589,1072.2980116767535,1
8.206873955522008e-05,0.00048323563728319344,1074.935980759519,1
8.3105909859491e-05,0.000485363071416141,1077.5739498422845,1
8.414390841356064e-05,0.00048748961902158553,1080.21191892505,1
8.519138878033008e-05,0.0004896060176505369,1082.8498880078157,1
8.623886914709948e-05,0.0004917224162794884,1085.4878570905812,1
8.729465086507578e-05,0.0004938308076298534,1088.1258261733467,1
8.835243250111344e-05,0.0004959372699085933,1090.7637952561122,1
8.941563896514249e-05,0.0004980389661885807,1093.401764338878,1
9.048362954153038e-05,0.0005001364593724388,1096.0397334216432,1
9.155423717908944e-05,0.0005022318855636587,1098.677702504409,1
9.263241471275194e-05,0.0005043213329418145,1101.3156715871742,1
9.371059224641442e-05,0.0005064107803199703,1103.95364066994,1
9.479873883892575e-05,0.000508493187158298,1106.5916097527054,1
9.588706376032662e-05,0.000510575468053779,1109.2295788354709,1
9.698255072799392e-05,0.0005126532357084575,1111.8675479182364,1
9.808099226082728e-05,0.0005147291415119886,1114.505517001002,1
9.918380381631067e-05,0.0005168025888204394,1117.1434860837676,1
0.00010029232678765527,0.0005188728229904424,1119.781455166533,1
0.00010140244986251092,0.0005209422742351801,1122.4194242492986,1
0.00010252103668590624,0.0005230075841962285,1125.057393332064,1
0.00010363962350930156,0.000525072894157277,1127.6953624148296,1
0.00010476707699238775,0.0005271343541213544,1130.333331497595,1
0.00010589568809829768,0.0005291953114334165,1132.9713005803608,1
0.00010703041442892738,0.0005312539621256278,1135.6092696631263,1
0.0001081690498173518,0.0005333111383486713,1138.247238745892,1
0.00010931106374898886,0.0005353672523223203,1140.8852078286573,1
0.00011045976738607909,0.0005374212629824642,1143.523176911423,1
0.00011160907263488096,0.0005394751071250808,1146.1611459941882,1
0.00011276762468988017,0.0005415263918838393,1148.799115076954,1
0.00011392617674487941,0.0005435776766425978,1151.4370841597192,1
0.00011509264858642079,0.0005456271976061001,1154.075053242485,1
0.00011626126889008597,0.0005476762400911384,1156.7130223252504,1
0.00011743497792805462,0.0005497243368821908,1159.350991408016,1
0.00011861353458193155,0.0005517715327888711,1161.9889604907817,1
0.00011979445267053547,0.000553818394333112,1164.6269295735472,1
0.00012098294567462406,0.000555864183322948,1167.2648986563127,1
0.00012217143867871268,0.0005579099723127841,1169.9028677390781,1
0.00012336954451544393,0.0005599547873151717,1172.5408368218436,1
0.00012456801783589566,0.000561999565083526,1175.1788059046091,1
0.0001257733343421332,0.0005640438280989672,1177.8167749873746,1
0.00012698174401279676,0.0005660878584427483,1180.4547440701404,1
0.00012819426956966952,0.0005681317248795562,1183.0927131529058,1
0.00012941261559054485,0.0005701753595279747,1185.7306822356713,1
0.00013063235019805287,0.0005722189880322044,1188.368651318437,1
0.00013186063256913987,0.0005742625787144715,1191.0066204012023,1
0.00013308891494022686,0.0005763061693967386,1193.644589483968,1
0.00013432583299122466,0.000578349874206934,1196.2825585667333,1
0.0001355640956786748,0.0005803935967876551,1198.920527649499,1
0.00013680822870381645,0.0005824375791178317,1201.5584967322643,1
0.0001380564277414784,0.0005844817413600668,1204.19646581503,1
0.000139307755910007,0.0005865261122110263,1206.8344348977955,1
0.00014056584733172924,0.0005885709339455319,1209.472403980561,1
0.0001418243581710922,0.0005906157943106099,1212.1103730633267,1
0.00014309247387532897,0.0005926615393342945,1214.7483421460922,1
0.00014436058957956573,0.0005947072843579791,1217.3863112288577,1
0.00014563629633497106,0.0005967538390937884,1220.0242803116232,1
0.0001469143044232682,0.0005988006393051062,1222.6622493943887,1
0.00014819723167147053,0.0006008480462850466,1225.3002184771542,1
0.00014948522007613089,0.0006028960775486031,1227.93818755992,1
0.00015077539787603333,0.0006049444353009237,1230.5761566426854,1
0.0001520734105632081,0.000606993961413627,1233.214125725451,1
0.00015337142325038295,0.0006090434875263303,1235.8520948082164,1
0.00015467877367714888,0.000611094549178433,1238.4900638909821,1
0.00015598667874838402,0.0006131457020387374,1241.1280329737474,1
0.00015730129462743388,0.0006151980028003784,1243.7660020565131,1
0.00015861922398118354,0.0006172508703405866,1246.4039711392784,1
0.00015994109534210658,0.0006193044846046204,1249.041940222044,1
0.00016126900501221934,0.0006213592426893378,1251.6799093048094,1
0.00016259811732223184,0.0006234142497787924,1254.317878387575,1
0.00016393600730870775,0.0006254710742726246,1256.9558474703406,1
0.00016527389729518375,0.0006275278987664571,1259.5938165531063,1
0.00016662026806707594,0.0006295865458852253,1262.2317856358718,1
0.00016796818233606636,0.0006316455247204751,1264.8697547186373,1
0.00016932182595550213,0.0006337057851209561,1267.5077238014028,1
0.00017067976450700701,0.0006357670062299263,1270.1456928841683,1
0.00017204069403501906,0.0006378289326346667,1272.7836619669338,1
0.00017340870083518988,0.0006398925279158114,1275.4216310496993,1
0.00017477693411586414,0.0006419561788237466,1278.059600132465,1
0.00017615496519854943,0.0006440222362093685,1280.6975692152305,1
0.00017753299628123483,0.0006460882935949906,1283.3355382979962,1
0.00017891852669196708,0.0006481562587044139,1285.9735073807615,1
0.00018030658205716693,0.0006502248661268158,1288.6114764635272,1
0.00018169942696362752,0.000652294722994764,1291.2494455462925,1
0.00018309759454364458,0.0006543659683862488,1293.8874146290582,1
0.0001844977673381618,0.0006564377566742357,1296.5253837118235,1
0.0001859060031668448,0.0006585117279671059,1299.1633527945892,1
0.00018731423899552785,0.0006605856992599764,1301.8013218773547,1
0.00018873178478470863,0.0006626622318083547,1304.4392909601202,1
0.0001901500888620576,0.0006647389729687619,1307.0772600428859,1
0.0001915749965715402,0.0006668175722940551,1309.7152291256514,1
0.00019300345682985774,0.000668897171254302,1312.3531982084169,1
0.000194435766121156,0.0006709778770180239,1314.9911672911824,1
0.00019587447049274493,0.0006730604217104131,1317.6291363739479,1
0.00019731417205803893,0.0006751432691223199,1320.2671054567134,1
0.00019876272484753684,0.000677228803513003,1322.9050745394788,1
0.00020021127763703483,0.0006793143379036862,1325.5430436222446,1
0.0002016684090765058,0.0006814023441087682,1328.18101270501,1
0.00020312733787772926,0.000683490868197745,1330.8189817877756,1
0.00020459180309226086,0.0006855811163452521,1333.4569508705413,1
0.00020606075617599884,0.0006876727620309769,1336.0949199533065,1
0.00020753256752697747,0.0006897652627539104,1338.7328890360723,1
0.00020901180869013818,0.0006918599860702316,1341.3708581188375,1
0.0002104910838380251,0.000693954720126315,1344.0088272016033,1
0.00021198048118215452,0.000696052652971687,1346.6467962843685,1
0.00021346987852628393,0.000698150585817059,1349.2847653671342,1
0.0002149667104436197,0.0007002508579893451,1351.9227344498997,1
0.00021646630793486913,0.0007023520003637679,1354.5607035326652,1
0.00021797060022719575,0.0007044546211010831,1357.198672615431,1
0.00021948052976401936,0.000706559016970708,1359.8366416981964,1
0.00022099227864216998,0.0007086639981936292,1362.474610780962,1
0.00022251232039381083,0.0007107716475584562,1365.1125798637274,1
0.00022403236214545171,0.0007128792969232831,1367.750548946493,1
0.0002255617589260405,0.0007149899717442803,1370.3885180292584,1
0.00022709213272325545,0.0007171009625366119,1373.026487112024,1
0.00022862897015869368,0.0007192140616401239,1375.6644561947896,1
0.00023016958806918011,0.0007213283938599603,1378.3024252775551,1
0.00023171388919091123,0.0007234439329192261,1380.9403943603206,1
0.00023326483914697183,0.000725561650532719,1383.5783634430863,1
0.00023481663279988324,0.0007276796457729532,1386.2163325258516,1
0.00023637787083536664,0.0007298007487801021,1388.8543016086173,1
0.00023793910887085,0.0007319218517872512,1391.4922706913826,1
0.0002395086903454488,0.0007340457241061065,1394.1302397741483,1
0.00024108026042650633,0.000736170256473063,1396.7682088569136,1
0.00024265733803782776,0.0007382966168713413,1399.4061779396793,1
0.00024423924016445944,0.0007404245785981055,1402.0441470224448,1
0.00024582383664970687,0.0007425534384444085,1404.6821161052105,1
0.0002474161587542155,0.0007446848734971315,1407.320085187976,1
0.0002490084808587241,0.0007468163085498547,1409.9580542707415,1
0.0002506109274543114,0.0007489511616999932,1412.596023353507,1
0.0002522135376382428,0.0007510860700786753,1415.2339924362725,1
0.00025387372679093164,0.0008718474065486878,1417.871961519038,0
0.00025598182819315936,0.0008751500606647202,1420.5099306018035,0
0.0002580946383538332,0.0008784549064211549,1423.1478996845692,0
0.000260207448514507,0.0008817597521775895,1425.7858687673347,0
0.00026232025867518074,0.000885064597934024,1428.4238378501002,0
0.00026443306883585467,0.0008883694436904588,1431.0618069328657,0
0.0002665512482471024,0.0008916769896476533,1433.6997760156314,0
0.0002686987842618669,0.0008949992990661601,1436.3377450983967,0
0.00027084632027663143,0.000898321608484667,1438.9757141811624,0
0.00027299385629139594,0.0009016439179031739,1441.6136832639277,0
0.0002751413923061604,0.0009049662273216808,1444.2516523466934,0
0.00027728892832092506,0.0009082885367401878,1446.8896214294589,0
0.0002794508849459658,0.0009116188974188104,1449.5275905122244,0
0.00028163330890054923,0.0009149606853387813,1452.1655595949899,0
0.00028381573285513284,0.0009183024732587525,1454.8035286777556,0
0.0002859981568097163,0.0009216442611787234,1457.441497760521,0
0.0002881805807642998,0.0009249860490986942,1460.0794668432866,0
0.0002903630047188833,0.0009283278370186653,1462.717435926052,0
0.00029256803413718824,0.0009316825483176961,1465.3554050088176,0
0.00029478548628060356,0.0009350443615982452,1467.993374091583,0
0.0002970029384240188,0.000938406174878794,1470.6313431743486,0
0.00029922039056743424,0.0009417679881593431,1473.2693122571143,0
0.0003014378427108495,0.0009451298014398921,1475.9072813398798,0
0.000303655294854265,0.0009484916147204412,1478.5452504226455,0
0.0003059027420842262,0.0009518715049470935,1481.1832195054108,0
0.0003081554038698764,0.0009552545377965218,1483.8211885881765,0
0.0003104080656555266,0.0009586375706459501,1486.4591576709417,0
0.0003126607274411768,0.0009620206034953783,1489.0971267537075,0
0.00031491338922682704,0.0009654036363448067,1491.7350958364727,0
0.00031716726649826777,0.000968787441766051,1494.3730649192385,0
0.0003194543474359322,0.0009721923516847039,1497.011034002004,0
0.0003217414283735965,0.0009755972616033566,1499.6490030847694,0
0.0003240285093112608,0.0009790021715220094,1502.286972167535,0
0.0003263155902489253,0.0009824070814406622,1504.9249412503007,0
0.0003286026711865896,0.0009858119913593148,1507.5629103330662,0
0.0003308966015654999,0.0009892214353676378,1510.2008794158317,0
0.00033321871582998473,0.0009926495361188776,1512.8388484985971,0
0.0003355408300944696,0.0009960776368701174,1515.4768175813626,0
0.0003378629443589546,0.0009995057376213571,1518.1147866641284,0
0.00034018505862343945,0.001002933838372597,1520.7527557468939,0
0.00034250717288792433,0.0010063619391238365,1523.3907248296593,0
0.00034484107087135406,0.0010097983467883286,1526.0286939124248,0
0.0003471982801630765,0.001013251187721188,1528.6666629951903,0
0.0003495554894547992,0.0010167040286540475,1531.3046320779558,0
0.00035191269874652165,0.001020156869586907,1533.9426011607216,0
0.0003542699080382441,0.0010236097105197663,1536.5805702434868,0
0.00035662711732996653,0.0010270625514526256,1539.2185393262525,0
