pressure,epsilon,muB,phase_index
2.059195e-08,6.910419e-06,858.0,1
4.6493883461701717e-08,1.1465630026970064e-05,860.3854640727455,1
7.239581692340159e-08,1.6020841053939803e-05,862.7709281454909,1
1.0964593025327279e-07,2.1948579593963793e-05,865.1563922182365,1
1.5895746033769826e-07,2.9335109458618567e-05,867.541856290982,1
2.0826899042212015e-07,3.672163932327281e-05,869.9273203637274,1
3.0151678325355825e-07,4.645920707897981e-05,872.312784436473,1
3.9614528046248686e-07,5.6270656592143335e-05,874.6982485092185,1
5.136481326239531e-07,6.64386186457701e-05,877.0837125819639,1
6.586275742019512e-07,7.703482222649165e-05,879.4691766547094,1
8.036070157799493e-07,8.76310258072132e-05,881.854640727455,1
9.96217581714117e-07,9.779767435846356e-05,884.2401048002004,1
1.1919189073244963e-06,0.00010793644930014232,886.6255688729459,1
1.4077081769240339e-06,0.00011773364844617415,889.0110329456915,1
1.6508056520720246e-06,0.00012706649832664862,891.3964970184368,1
1.8939031272200325e-06,0.00013639934820712377,893.7819610911824,1
2.1765221552821567e-06,0.00014503143340834827,896.1674251639279,1
2.4631169774872776e-06,0.00015359302299636964,898.5528892366733,1
2.765456586263376e-06,0.0001618959554946503,900.9383533094189,1
3.0920775077224605e-06,0.00016979999191101992,903.3238173821644,1
3.418698429181521e-06,0.00017770402832738898,905.7092814549098,1
3.7778943892169185e-06,0.00018512749520728904,908.0947455276553,1
4.141611264893897e-06,0.00019248426640763576,910.4802096004007,1
4.517860786894931e-06,0.00019967800239954054,912.8656736731463,1
4.916112821107765e-06,0.00020658551119952072,915.2511377458918,1
5.314364855320598e-06,0.00021349301999950093,917.6366018186374,1
5.741316070729798e-06,0.0002202036132827581,920.0220658913827,1
6.173424996527109e-06,0.00022687881763978744,922.4075299641283,1
6.615921351213397e-06,0.00023344407337360374,924.7929940368737,1
7.0792774708996e-06,0.0002397885331369469,927.1784581096192,1
7.542633590585803e-06,0.00024613299290029007,929.5639221823648,1
8.029475266078124e-06,0.0002522425841096629,931.9493862551101,1
8.521570661758078e-06,0.00025829963520997476,934.3348503278557,1
9.022688235410361e-06,0.0002642770795637802,936.7203144006012,1
9.544662363756103e-06,0.0002700704971263187,939.1057784733466,1
1.0066636492101885e-05,0.00027586391468885764,941.4912425460922,1
1.061029377593728e-05,0.0002814660332900497,943.8767066188377,1
1.1159829158602178e-05,0.00028701629254810636,946.2621706915832,1
1.1716559763498805e-05,0.0002925054906418,948.6476347643286,1
1.2292597652011946e-05,0.0002978308403955317,951.0330988370742,1
1.2868635540525047e-05,0.00030315619014926304,953.4185629098196,1
1.3463847229151216e-05,0.0003083229057969945,955.8040269825651,1
1.406523862498419e-05,0.00031343849374326283,958.1894910553107,1
1.4672511811777131e-05,0.00031850722284659414,960.574955128056,1
1.5298306505074286e-05,0.0003234283954709337,962.9604192008017,1
1.5924101198371445e-05,0.00032834956809527316,965.3458832735471,1
1.656699583229211e-05,0.00033313330059610584,967.7313473462925,1
1.7216350959081084e-05,0.0003378651071308039,970.1168114190381,1
1.78704350096252e-05,0.0003425602894108928,972.5022754917836,1
1.8542249280659028e-05,0.0003471181558569529,974.887739564529,1
1.9214063551692903e-05,0.00035167602230301326,977.2732036372745,1
1.990106016116583e-05,0.00035611756085367755,979.6586677100202,1
2.0594709380012186e-05,0.000360508126752769,982.0441317827655,1
2.1292155510228215e-05,0.00036486990972954157,984.429595855511,1
2.2006888255704235e-05,0.0003691006495357594,986.8150599282566,1
2.2721621001180205e-05,0.00037333138934197703,989.2005240010019,1
2.3449615250266216e-05,0.0003774614453386465,991.5859880737476,1
2.418429445116384e-05,0.00038154074793397954,993.971452146493,1
2.4921909287964653e-05,0.00038559826079412785,996.3569162192384,1
2.567620893086061e-05,0.0003895319308078198,998.742380291984,1
2.643050857375657e-05,0.00039346560082151175,1001.1278443647295,1
2.7196781008573635e-05,0.0003973117763857101,1003.513308437475,1
2.7969953648058467e-05,0.00040110752681826284,1005.8987725102204,1
2.8745272747472336e-05,0.00040488757317960663,1008.2842365829661,1
2.9536459616479797e-05,0.0004085515267221399,1010.6697006557114,1
3.032764648548731e-05,0.00041221548026467347,1013.0551647284569,1
3.112951321600774e-05,0.00041580413694186413,1015.4406288012025,1
3.193838432534115e-05,0.0004193434102288619,1017.8260928739478,1
3.274877370836205e-05,0.00042283263266822135,1020.2115569466935,1
3.3574764498190875e-05,0.00042580754491334215,1022.5970210194388,1
3.440075528801975e-05,0.0004287824571584631,1024.9824850921843,1
3.5235742623523314e-05,0.00043220648991358336,1027.36794916493,1
3.6077421815403936e-05,0.0004359645897715212,1029.7534132376754,1
3.692005671464239e-05,0.00043969045157646645,1032.1388773104209,1
3.7778151875116965e-05,0.000442894805707651,1034.5243413831663,1
3.863624703559148e-05,0.0004460991598388353,1036.9098054559117,1
3.950258442783341e-05,0.0004492513361958405,1039.2952695286572,1
4.0375859091357554e-05,0.0004523595958826279,1041.6807336014028,1
4.124954594573273e-05,0.00045546534116109233,1044.0661976741485,1
4.2137674098883104e-05,0.0004584829929708497,1046.4516617468937,1
4.302580225203355e-05,0.0004615006447806074,1048.8371258196394,1
4.3921302622235005e-05,0.00046447491502568336,1051.2225898923848,1
4.48238151237441e-05,0.00046740792261859305,1053.6080539651302,1
4.5726327625253196e-05,0.00047034093021150285,1055.9935180378757,1
4.6643003000260854e-05,0.00047319646228701005,1058.3789821106213,1
4.755971696454963e-05,0.00047605178326661716,1060.7644461833668,1
4.8483109990909396e-05,0.00047887195532272936,1063.1499102561122,1
4.9413679525687356e-05,0.00048165436061717954,1065.5353743288576,1
5.03442490604654e-05,0.00048443676591162994,1067.9208384016033,1
5.1295133276204996e-05,0.0004871581695056339,1070.3063024743487,1
5.224671477369047e-05,0.0004898774792753602,1072.6917665470942,1
5.319714902056574e-05,0.0004925681167567548,1075.0772306198396,1
5.414618999881375e-05,0.0004952239334244116,1077.4626946925853,1
5.5095230977061676e-05,0.0004978797500920681,1079.8481587653305,1
5.606357045663065e-05,0.0005004880650473684,1082.2336228380761,1
5.7033221844467175e-05,0.0005030931508457447,1084.6190869108218,1
5.8008220792039556e-05,0.0005056764044027447,1087.0045509835672,1
5.899057080028991e-05,0.0005082296461152733,1089.3900150563127,1
5.997292080854035e-05,0.0005107828878278018,1091.775479129058,1
6.0966298830263925e-05,0.0005132951436509362,1094.1609432018035,1
6.196082265683227e-05,0.0005158031410615518,1096.546407274549,1
6.296007883672596e-05,0.0005182909013327419,1098.9318713472946,1
6.396671684501033e-05,0.0005207470944152442,1101.31733542004,1
6.497335485329477e-05,0.0005232032874977467,1103.7027994927855,1
6.599032280535003e-05,0.0005256461853022153,1106.0882635655312,1
6.700876090924758e-05,0.0005280871909301211,1108.4737276382766,1
6.803148494779702e-05,0.0005305122871915113,1110.859191711022,1
6.906182254164418e-05,0.0005329091219763368,1113.2446557837675,1
7.009216013549127e-05,0.0005353059567611624,1115.630119856513,1
7.113220948457092e-05,0.0005376774287815449,1118.0155839292586,1
7.21740410394752e-05,0.0005400442464767882,1120.4010480020038,1
7.321965440660562e-05,0.0005424022552367947,1122.7865120747495,1
7.427295606792642e-05,0.0005447423557344235,1125.1719761474951,1
7.532625772924722e-05,0.0005470824562320523,1127.5574402202406,1
7.638879466230727e-05,0.0005494025771972015,1129.942904292986,1
7.74534352295205e-05,0.0005517181471726155,1132.3283683657314,1
7.852143437835672e-05,0.000554027328347705,1134.7138324384769,1
7.959729855403222e-05,0.0005563215484196682,1137.0992965112223,1
8.067316272970774e-05,0.0005586157684916312,1139.484760583968,1
8.175771409891369e-05,0.0005608948085734639,1141.8702246567136,1
8.284465875520704e-05,0.000563169666628703,1144.2556887294588,1
8.393458690920671e-05,0.0005654399404414064,1146.6411528022045,1
8.503263192498522e-05,0.0005676977424285255,1149.02661687495,1
8.613067694076381e-05,0.0005699555444156445,1151.4120809476954,1
8.723690677820216e-05,0.0005722017222782981,1153.7975450204408,1
8.834581360705866e-05,0.0005744440982644134,1156.1830090931865,1
8.94573259379256e-05,0.0005766829023441361,1158.568473165932,1
9.057716614378217e-05,0.0005789102896643277,1160.9539372386773,1
9.169700634963867e-05,0.0005811376769845191,1163.3394013114228,1
9.28246659452368e-05,0.0005833587110505458,1165.7248653841684,1
9.395532025488983e-05,0.0005855773119114027,1168.1103294569139,1
9.508819406691063e-05,0.0005877933511723565,1170.4957935296593,1
9.622952730406257e-05,0.0005899996271355042,1172.8812576024047,1
9.73708605412146e-05,0.000592205903098652,1175.2667216751504,1
9.851970571623363e-05,0.0005944058456830994,1177.6521857478956,1
9.967188486336974e-05,0.0005966029773673017,1180.0376498206413,1
0.00010082593981543317,0.0005987986704642663,1182.423113893387,1
0.00010198869451995844,0.0006009876915706214,1184.8085779661324,1
0.00010315144922448365,0.0006031767126769762,1187.1940420388778,1
0.0001043212590563075,0.0006053611268905056,1189.5795061116232,1
0.00010549466883369095,0.0006075431903933148,1191.9649701843687,1
0.00010667281531411648,0.0006097243661293397,1194.350434257114,1
0.00010787846861421662,0.0006119003864564982,1196.7358983298598,1
0.00010908412191431676,0.0006140764067836565,1199.1213624026054,1
0.00011026908146415534,0.0006162491372063438,1201.5068264753506,1
0.00011144197439098979,0.0006184199492702768,1203.8922905480963,1
0.00011261861237596181,0.0006205902567466484,1206.2777546208417,1
0.00011382366931004379,0.0006227567352175159,1208.6632186935872,1
0.00011502872624412575,0.0006249232136883834,1211.0486827663326,1
0.00011624016513164151,0.0006270874931340975,1213.434146839078,1
0.0001174558373808472,0.0006292503138933867,1215.8196109118237,1
0.00011867241195998498,0.0006314128714731126,1218.2050749845691,1
0.00011989858025111065,0.0006335726308868417,1220.5905390573146,1
0.0001211247485422364,0.0006357323903005709,1222.9760031300602,1
0.00012235692998017455,0.0006378909697760577,1225.3614672028057,1
0.00012359363407095486,0.0006400486617875906,1227.746931275551,1
0.0001248309229078569,0.0006422062434696665,1230.1323953482965,1
0.0001260781627982919,0.0006443619475944722,1232.5178594210422,1
0.00012732540268872678,0.0006465176517192776,1234.9033234937874,1
0.000128578270284869,0.0006486726470109216,1237.288787566533,1
0.00012983592670175499,0.0006508270391304871,1239.6742516392787,1
0.00013109384387725018,0.000652981415325863,1242.0597157120242,1
0.0001323619168205871,0.0006551351713216756,1244.4451797847696,1
0.00013362998976392397,0.0006572889273174882,1246.830643857515,1
0.00013490343385061962,0.0006594421968701291,1249.2161079302605,1
0.00013618204259361122,0.0006615949986803129,1251.601572003006,1
0.00013746065133660285,0.0006637478004904966,1253.9870360757516,1
0.00013874961999690947,0.0006659009977173717,1256.372500148497,1
0.00014003864526635209,0.0006680541971049009,1258.7579642212424,1
0.00014133272067742638,0.0006702074727209829,1261.1434282939879,1
0.00014263228174652359,0.0006723608311394502,1263.5288923667335,1
0.00014393184281562082,0.0006745141895579176,1265.914356439479,1
0.00014524167281658736,0.0006877470572022055,1268.2998205122244,0
0.000146805061397745,0.0006906770914839908,1270.6852845849698,0
0.00014836844997890273,0.0006936071257657764,1273.0707486577155,0
0.00014995587648160657,0.0006965316814350415,1275.4562127304607,0
0.00015155021245527586,0.0006994546623294637,1277.8416768032064,0
0.00015314454842894513,0.0007023776432238856,1280.227140875952,0
0.00015473888440261442,0.0007053006241183077,1282.6126049486975,0
0.0001563332203762836,0.0007082236050127295,1284.998069021443,0
0.0001579275563499529,0.0007111465859071516,1287.3835330941884,0
0.00015955342223766,0.0007140664400779991,1289.7689971669338,0
0.00016118003813426663,0.0007169862198727953,1292.1544612396792,0
0.00016280665403087323,0.0007199059996675915,1294.5399253124249,0
0.00016443326992747985,0.0007228257794623877,1296.9253893851705,0
0.00016605988582408634,0.0007257455592571837,1299.3108534579158,0
0.0001676899026955277,0.0007286651863213365,1301.6963175306614,0
0.00016934779064369174,0.0007315835617539158,1304.0817816034069,0
0.0001710056785918559,0.0007345019371864952,1306.4672456761523,0
0.00017266356654002004,0.0007374203126190747,1308.8527097488977,0
0.0001743214544881842,0.0007403386880516543,1311.2381738216434,0
0.00017597934243634823,0.0007432570634842335,1313.6236378943888,0
0.00017764271672127864,0.0007461758984972825,1316.0091019671343,0
0.0001793322386535163,0.0007490969238512708,1318.3945660398797,0
0.00018102176058575414,0.0007520179492052591,1320.7800301126254,0
0.00018271128251799194,0.0007549389745592477,1323.1654941853708,0
0.00018440080445022975,0.0007578599999132361,1325.5509582581162,0
0.00018609032638246747,0.0007607810252672244,1327.9364223308617,0
0.00018778549214681605,0.0007637026169893246,1330.321886403607,0
0.000189506520542728,0.0007666268040703094,1332.7073504763525,0
0.0001912275489386399,0.0007695509911512944,1335.0928145490982,0
0.00019294857733455185,0.0007724751782322792,1337.4782786218439,0
0.00019466960573046371,0.000775399365313264,1339.8637426945893,0
0.00019639063412637555,0.0007783235523942487,1342.2492067673347,0
0.0001981156133543673,0.0007812486381939039,1344.6346708400802,0
0.00019986798123751155,0.0007841799542496811,1347.0201349128256,0
0.0002016203491206558,0.000787111270305458,1349.405598985571,0
0.0002033727170038,0.0007900425863612351,1351.7910630583167,0
0.00020512508488694422,0.0007929739024170121,1354.1765271310624,0
0.00020687745277008833,0.000795905218472789,1356.5619912038076,0
0.00020863051978164604,0.0007988367066312579,1358.947455276553,0
0.0002104149418050153,0.000801775913374526,1361.3329193492987,0
0.0002121993638283845,0.0008047151201177939,1363.718383422044,0
0.0002139837858517538,0.000807654326861062,1366.1038474947895,0
0.000215768207875123,0.00081059353360433,1368.4893115675352,0
0.00021755262989849212,0.0008135327403475977,1370.8747756402806,0
0.00021933705192186124,0.0008164719470908656,1373.2602397130258,0
0.00022114841382899058,0.0008194194583740676,1375.6457037857715,0
0.00022296383464624352,0.0008223682208646435,1378.0311678585172,0
0.0002247792554634965,0.0008253169833552194,1380.4166319312626,0
0.00022659467628074936,0.0008282657458457951,1382.802096004008,0
0.00022841009709800234,0.0008312145083363709,1385.1875600767535,0
0.00023022551791525517,0.0008341632708269466,1387.573024149499,0
0.0002320623993440436,0.0008371202923106761,1389.9584882222443,0
0.00023390990350006315,0.0008400814018900002,1392.34395229499,0
0.00023575740765608265,0.0008430425114693244,1394.7294163677357,0
0.00023760491181210204,0.0008460036210486484,1397.1148804404809,0
0.0002394524159681216,0.0008489647306279724,1399.5003445132265,0
0.000241299920124141,0.0008519258402072964,1401.885808585972,0
0.0002431609251792118,0.0008548923935412871,1404.2712726587174,0
0.0002450398743725695,0.0008578661822072485,1406.6567367314628,0
0.0002469188235659272,0.0008608399708732097,1409.0422008042085,0
0.00024879777275928477,0.0008638137595391709,1411.427664876954,0
0.00025067672195264244,0.0008667875482051323,1413.8131289496994,0
0.000252555671146,0.0008697613368710932,1416.1985930224448,0
0.0002544393517708508,0.0008727373277303799,1418.5840570951905,0
0.00025634992485669433,0.000875725835393129,1420.969521167936,0
0.0002582604979425378,0.0008787143430558783,1423.3549852406813,0
0.00026017107102838116,0.0008817028507186272,1425.7404493134268,0
0.00026208164411422463,0.0008846913583813764,1428.1259133861724,0
0.000263992217200068,0.0008876798660441254,1430.5113774589177,0
0.00026590279028591146,0.0008906683737068746,1432.8968415316633,0
0.0002678395648193222,0.000893670058100279,1435.282305604409,0
0.0002697815398188083,0.0008966743578125727,1437.6677696771544,0
0.0002717235148182943,0.0008996786575248663,1440.0532337498998,0
0.0002736654898177802,0.0009026829572371599,1442.4386978226453,0
0.00027560746481726636,0.0009056872569494536,1444.8241618953907,0
0.00027754943981675244,0.0009086915566617475,1447.2096259681362,0
0.0002795067281282181,0.0009117044060439662,1449.5950900408818,0
0.00028148025161231456,0.0009147263197858319,1451.9805541136275,0
0.0002834537750964109,0.0009177482335276973,1454.3660181863727,0
0.00028542729858050726,0.0009207701472695627,1456.7514822591181,0
0.0002874008220646037,0.0009237920610114283,1459.1369463318638,0
0.00028937434554870023,0.000926813974753294,1461.5224104046092,0
0.00029135125350824843,0.0009298378233751392,1463.9078744773547,0
0.00029335645230140655,0.0009328778456606244,1466.2933385501003,0
0.0002953616510945645,0.0009359178679461096,1468.6788026228458,0
0.00029736684988772245,0.0009389578902315945,1471.064266695591,0
0.00029937204868088057,0.0009419979125170799,1473.4497307683366,0
0.0003013772474740387,0.0009450379348025652,1475.8351948410823,0
0.00030338244626719674,0.0009480779570880505,1478.2206589138277,0
0.00030540993749333446,0.0009511314142109005,1480.6061229865732,0
0.0003074469756803331,0.0009541906249393176,1482.9915870593186,0
0.0003094840138673317,0.0009572498356677345,1485.377051132064,0
0.00031152105205433045,0.0009603090463961518,1487.7625152048095,0
0.00031355809024132924,0.000963368257124569,1490.1479792775551,0
0.000315595128428328,0.0009664274678529862,1492.5334433503008,0
0.0003176405040329993,0.000969491977906137,1494.9189074230462,0
0.00031970866678892495,0.0009725709716422446,1497.3043714957917,0
0.00032177682954485063,0.0009756499653783521,1499.689835568537,0
0.0003238449923007765,0.0009787289591144598,1502.0752996412825,0
0.0003259131550567023,0.0009818079528505677,1504.460763714028,0
0.00032798131781262813,0.0009848869465866753,1506.8462277867736,0
0.0003300494805685538,0.000987965940322783,1509.231691859519,0
0.00033214330150703827,0.0009910619188750703,1511.6171559322645,0
0.00033424314421820874,0.0009941618836294946,1514.00262000501,0
0.00033634298692937937,0.0009972618483839188,1516.3880840777556,0
0.00033844282964055,0.0010003618131383433,1518.773548150501,0
0.0003405426723517206,0.0010034617778927678,1521.1590122232465,0
0.0003426425150628911,0.001006561742647192,1523.544476295992,0
0.00034475282769508227,0.0010096690881551869,1525.9299403687376,0
0.0003468844061559832,0.0010127914249740877,1528.3154044414828,0
0.0003490159846168843,0.0010159137617929887,1530.7008685142284,0
0.0003511475630777853,0.0010190360986118896,1533.086332586974,0
0.0003532791415386864,0.0010221584354307906,1535.4717966597195,0
0.00035541071999958715,0.0010252807722496912,1537.8572607324647,0
0.0003575422984604886,0.0010284031090685927,1540.2427248052106,0
0.0003597000383997647,0.0010315437845013636,1542.6281888779558,0
0.0003618630892745434,0.001034688182781677,1545.0136529507013,0
0.0003640261401493222,0.0010378325810619904,1547.399117023447,0
0.0003661891910241009,0.0010409769793423037,1549.7845810961926,0
0.0003683522418988797,0.001044121377622617,1552.170045168938,0
0.00037051529277365805,0.0010472657759029301,1554.5555092416832,0
0.0003726883133455954,0.001050417547005997,1556.940973314429,0
0.00037488328187727804,0.0010535855491353861,1559.3264373871743,0
0.0003770782504089607,0.0010567535512647755,1561.7119014599198,0
0.0003792732189406433,0.0010599215533941646,1564.0973655326654,0
0.00038146818747232563,0.0010630895555235533,1566.4828296054106,0
0.00038366315600400834,0.0010662575576529424,1568.868293678156,0
0.00038585812453569094,0.0010694255597823317,1571.2537577509017,0
0.00038807737744150716,0.0010726122339346372,1573.6392218236474,0
0.00039030357431318,0.0010758042472358497,1576.0246858963928,0
0.0003925297711848528,0.0010789962605370618,1578.4101499691383,0
0.0003947559680565256,0.0010821882738382743,1580.795614041884,0
0.00039698216492819815,0.0010853802871394862,1583.1810781146291,0
0.00039920836179987095,0.0010885723004406985,1585.5665421873746,0
0.00040144173911481584,0.0010917696995971866,1587.9520062601202,0
