pressure,epsilon,muB,phase_index
8.504913999999999e-08,2.052981e-05,894.0,1
1.4433064292026233e-07,2.992891310480122e-05,896.3133197841682,1
2.0361214584052467e-07,3.932801620960245e-05,898.6266395683366,1
2.862888203293296e-07,5.0554326665524936e-05,900.9399593525051,1
4.031478271057699e-07,6.445034222069957e-05,903.2532791366734,1
5.200068338822102e-07,7.83463577758742e-05,905.5665989208417,1
6.945750524214135e-07,9.284014674767007e-05,907.8799187050099,1
8.824476944916467e-07,0.00010747174787228157,910.1932384891783,1
1.0850864595741241e-06,0.00012174163093064547,912.5065582733467,1
1.340392142020885e-06,0.0001347213597969759,914.8198780575151,1
1.5956978244676458e-06,0.00014770108866330635,917.1331978416833,1
1.887884884648204e-06,0.0001596258963337303,919.4465176258516,1
2.2021725105253327e-06,0.00017091855963679732,921.75983741002,1
2.5180899201817012e-06,0.0001821699817909264,924.0731571941884,1
2.88391329865721e-06,0.00019215854962099753,926.3864769783568,1
3.2497366771327194e-06,0.00020214711745106863,928.699796762525,1
3.6363345169564485e-06,0.00021178394810140357,931.0131165466933,1
4.049593674266251e-06,0.00022096936985774185,933.3264363308617,1
4.462852831576024e-06,0.00023015479161407948,935.6397561150301,1
4.910872833739729e-06,0.00023877961548481714,937.9530758991984,1
5.365304456568129e-06,0.00024730103735243897,940.2663956833667,1
5.829965931775177e-06,0.0002556671534463087,942.5797154675352,1
6.325219166621605e-06,0.0002635688369437519,944.8930352517034,1
6.8204724014680335e-06,0.000271470520441195,947.2063550358718,1
7.340214436201997e-06,0.00027901958872456154,949.5196748200401,1
7.872745662710406e-06,0.00028638450492141814,951.8329946042084,1
8.407453291360227e-06,0.0002937197339288737,954.1463143883768,1
8.97439476410484e-06,0.00030061527754152254,956.4596341725451,1
9.541336236849455e-06,0.0003075108211541714,958.7729539567134,1
1.012359253992989e-05,0.0003142428986733799,961.0862737408818,1
1.0723148351651602e-05,0.00032079032621384115,963.39959352505,1
1.1322704163373359e-05,0.0003273377537543029,965.7129133092185,1
1.194921461623088e-05,0.0003334428208399263,968.0262330933867,1
1.2579544135488083e-05,0.0003394852121161739,970.3395528775551,1
1.3217954042055217e-05,0.0003454510867164675,972.6528726617234,1
1.3876914749174476e-05,0.0003512223569140106,974.9661924458917,1
1.4535875456293785e-05,0.0003569936271115541,977.2795122300602,1
1.5213705913341609e-05,0.00036255225423519765,979.5928320142284,1
1.5900071748837317e-05,0.0003680146962415543,981.9061517983968,1
1.6588894202913868e-05,0.00037345006642820153,984.2194715825651,1
1.730115379786042e-05,0.0003786271604391813,986.5327913667336,1
1.801341339280692e-05,0.00038380425445016077,988.8461111509018,1
1.8737997738593212e-05,0.0003888500042600457,991.1594309350701,1
1.9474847922845422e-05,0.0003937650376948086,993.4727507192384,1
2.0211698107097683e-05,0.0003986800711295718,995.7860705034069,1
2.096964366475621e-05,0.00040337242923449933,998.0993902875753,1
2.1729738857306336e-05,0.00040804209655082144,1000.4127100717435,1
2.2496797886224416e-05,0.00041264069764474734,1002.7260298559117,1
2.3279081671037692e-05,0.00041708392950952914,1005.0393496400801,1
2.4061365455851022e-05,0.0004215271613743113,1007.3526694242486,1
2.4858940244948877e-05,0.0004258192880178897,1009.6659892084169,1
2.5662456449847845e-05,0.0004300527017782474,1011.9793089925852,1
2.6468490237656142e-05,0.00043426152984421155,1014.2926287767534,1
2.72919087037649e-05,0.00043830058618736934,1016.6059485609218,1
2.8115327169873717e-05,0.0004423396425305275,1018.9192683450902,1
2.8949062398624374e-05,0.00044628331709561627,1021.2325881292586,1
2.979184335132662e-05,0.0004501433610428092,1023.5459079134268,1
3.063462430402887e-05,0.00045400340499000217,1025.859227697595,1
3.1494394578038504e-05,0.00045770916185686525,1028.1725474817636,1
3.235526569145302e-05,0.0004614049215440528,1030.485867265932,1
3.322229320911007e-05,0.00046505161114636395,1032.7991870501003,1
3.410098459592855e-05,0.00046860533299880326,1035.1125068342685,1
3.4979675982747044e-05,0.00047215905485124257,1037.4258266184368,1
3.5871063138304544e-05,0.00047559703651058857,1039.739146402605,1
3.676664175954753e-05,0.00047899680693139186,1042.0524661867735,1
3.766481624189756e-05,0.00048237824537861776,1044.365785970942,1
3.8576811722542126e-05,0.0004856620799229041,1046.6791057551102,1
3.948880720318668e-05,0.0004889459144671905,1048.9924255392784,1
4.04095098288965e-05,0.0004921662897887576,1051.305745323447,1
4.133693129696849e-05,0.0004953376969915334,1053.6190651076154,1
4.226435276504048e-05,0.0004985091041943092,1055.9323848917836,1
4.320659962681489e-05,0.0005015820372470445,1058.2457046759519,1
4.414929286099543e-05,0.0005046520053772847,1060.5590244601203,1
4.5097609807737427e-05,0.0005076876613005827,1062.8723442442886,1
4.605521624345984e-05,0.0005106666388526455,1065.1856640284568,1
4.7012822679182254e-05,0.0005136456164047082,1067.4989838126253,1
4.7981481146339113e-05,0.0005165607706651038,1069.8123035967935,1
4.895319497721205e-05,0.0005194582808054342,1072.125623380962,1
4.9927527835636864e-05,0.0005223419276574658,1074.4389431651302,1
5.0913044474555276e-05,0.000525166375447946,1076.7522629492987,1
5.189856111347368e-05,0.0005279908232384264,1079.065582733467,1
5.2892284520542876e-05,0.0005307765698315785,1081.3789025176352,1
5.389156926771013e-05,0.0005335360904467832,1083.6922223018037,1
5.489088679631583e-05,0.0005362954722327343,1086.005542085972,1
5.5903854830006365e-05,0.0005389970441873454,1088.3188618701402,1
5.69168228636969e-05,0.0005416986161419566,1090.6321816543086,1
5.79347216873891e-05,0.0005443792452397056,1092.9455014384769,1
5.895975368375415e-05,0.0005470295771610977,1095.2588212226453,1
5.998478568011912e-05,0.0005496799090824896,1097.5721410068136,1
6.10206747882055e-05,0.0005522930345776061,1099.885460790982,1
6.205902765099431e-05,0.0005548977169885905,1102.1987805751503,1
6.310016719323841e-05,0.0005574934632483047,1104.5121003593185,1
6.415110837118616e-05,0.0005600577782290554,1106.825420143487,1
6.52020495491338e-05,0.000562622093209806,1109.1387399276553,1
6.626066486265845e-05,0.0005651639738680088,1111.4520597118235,1
6.732383193566552e-05,0.0005676925480580941,1113.765379495992,1
6.838741847583568e-05,0.0005702200532496236,1116.0786992801602,1
6.946291554329236e-05,0.000572717204845974,1118.3920190643287,1
7.053841261074896e-05,0.0005752143564423241,1120.705338848497,1
7.161920500533105e-05,0.0005776992162245069,1123.0186586326654,1
7.270672748013244e-05,0.0005801684537621283,1125.3319784168339,1
7.379424995493375e-05,0.0005826376912997495,1127.645298201002,1
7.489195397889463e-05,0.000585086200130361,1129.9586179851703,1
7.599150186104064e-05,0.0005875309550335998,1132.2719377693386,1
7.709402577784622e-05,0.0005899703158130539,1134.5852575535068,1
7.820533689109482e-05,0.0005923937496189487,1136.8985773376753,1
7.931664800434332e-05,0.0005948171834248435,1139.2118971218438,1
8.04377103376776e-05,0.0005972281612926724,1141.525216906012,1
8.156381127541289e-05,0.0005996327029869964,1143.8385366901803,1
8.269028527388681e-05,0.0006020361639694113,1146.1518564743487,1
8.38220692672253e-05,0.0006044242425379381,1148.4651762585172,1
8.495385326056368e-05,0.0006068123211064649,1150.7784960426854,1
8.609253025115561e-05,0.000609193630416865,1153.0918158268537,1
8.723891900339806e-05,0.0006115673664027298,1155.405135611022,1
8.838530775564051e-05,0.0006139411023885947,1157.7184553951902,1
8.954174363614496e-05,0.0006163039683772501,1160.0317751793586,1
9.069957175472011e-05,0.0006186653281022697,1162.3450949635271,1
9.18606612210122e-05,0.0006210170420512354,1164.6584147476954,1
9.302994798358492e-05,0.0006233445116414169,1166.9717345318636,1
9.419923474615765e-05,0.0006256719812315984,1169.285054316032,1
9.537642546865597e-05,0.000628020975592996,1171.5983741002005,1
9.65571515975614e-05,0.0006303795978896043,1173.9116938843688,1
9.773899341924001e-05,0.0006327363675736749,1176.225013668537,1
9.893118975874205e-05,0.0006350759435373936,1178.5383334527055,1
0.000100123386098244,0.0006374155195011123,1180.8516532368737,1
0.00010132119954932907,0.0006397487075294322,1183.164973021042,1
0.0001025245499457237,0.0006420755987896677,1185.4782928052105,1
0.00010372790034211832,0.000644402490049903,1187.7916125893787,1
0.00010494174031817452,0.000646723838321555,1190.1049323735472,1
0.00010615661875816025,0.0006490446378396921,1192.4182521577154,1
0.0001073749843577356,0.0006513644009642448,1194.7315719418839,1
0.00010860088962202586,0.0006536819232793544,1197.0448917260521,1
0.00010982679488631611,0.0006559994455944639,1199.3582115102204,1
0.00011106091851280387,0.0006583139870120986,1201.6715312943888,1
0.0001122981975993663,0.0006606273839069263,1203.984851078557,1
0.00011353694269267043,0.0006629404031186614,1206.2981708627253,1
0.00011478559560150501,0.0006652508698084292,1208.6114906468938,1
0.0001160342485103396,0.000667561336498197,1210.924810431062,1
0.00011728886507971096,0.0006698706269642606,1213.2381302152305,1
0.00011854866047883927,0.0006721788960002334,1215.5514499993988,1
0.0001198084558779676,0.0006744871650362064,1217.8647697835672,1
0.00012107866980552824,0.0006767943813288882,1220.1780895677355,1
0.00012234953058429084,0.0006791015322602985,1222.4914093519037,1
0.00012362434794797254,0.0006814083344757504,1224.8047291360722,1
0.0001249065825490073,0.0006837144829685877,1227.1180489202404,1
0.00012618881715004205,0.0006860206314614251,1229.4313687044087,1
0.00012747948441210491,0.0006883265182509892,1231.7446884885771,1
0.00012877290005876315,0.000690632319745859,1234.0580082727454,1
0.0001300681537793032,0.0006929399469370088,1236.3713280569139,1
0.00013137302035889307,0.0006952571222541507,1238.684647841082,1
0.00013267788693848293,0.0006975742975712925,1240.9979676252506,1
0.00013398898213326762,0.0006998791904963663,1243.311287409419,1
0.0001353048369818323,0.0007021746977181967,1245.6246071935873,1
0.00013662069183039698,0.0007044702049400269,1247.9379269777555,1
0.00013794731514263952,0.0007067775312073571,1250.2512467619238,1
0.00013927423537083846,0.000709085183358054,1252.564566546092,1
0.00014060548650493343,0.0007113933768719883,1254.8778863302605,1
0.00014194381911073427,0.0007137024555698857,1257.191206114429,1
0.00014328215171653512,0.000716011534267783,1259.5045258985972,1
0.00014462936146875344,0.0007183220066473706,1261.8178456827654,1
0.00014597899078616695,0.0007206328588904357,1264.131165466934,1
0.0001473307610408734,0.0007229440815378769,1266.4444852511024,1
0.00014869153284858064,0.0007252568615474291,1268.7578050352706,1
0.0001500523046562879,0.000727569641556981,1271.0711248194389,1
0.00015141983716847614,0.0007298838290852133,1273.384444603607,1
0.00015279190568779608,0.0007321989609698793,1275.6977643877754,1
0.00015416402815008628,0.0007345142646592104,1278.0110841719438,1
0.00015554735482568917,0.000736865253000531,1280.3244039561123,1
0.0001569306815012921,0.0007392162413418516,1282.6377237402805,1
0.00015831873169306653,0.0007415410125833482,1284.951043524449,1
0.00015971354785693071,0.000743828230409285,1287.2643633086172,1
0.0001611083640207951,0.0007461154482352219,1289.5776830927857,1
0.00016251209941489566,0.0007484322602561833,1291.891002876954,1
0.00016391782673707528,0.0007507556815367425,1294.2043226611222,1
0.00016532612501673325,0.0007530798447714734,1296.5176424452907,1
0.0001667433418271741,0.0007554065818103897,1298.8309622294587,1
0.0001681605586376152,0.0007577333188493064,1301.1442820136272,1
0.00016958491769686535,0.0007600623151710095,1303.4576017977956,1
0.00017101346977424877,0.0007623926378555913,1305.7709215819639,1
0.0001724424360383491,0.0007647230672459039,1308.0842413661323,1
0.00017388236193800454,0.0007670563201355456,1310.3975611503006,1
0.00017534498001574284,0.0007421403971222538,1312.710880934469,0
0.000176952727973149,0.0007449705112719282,1315.0242007186373,0
0.00017858357861764943,0.0007478025606917534,1317.3375205028055,0
0.00018022200384328442,0.0007506352446204876,1319.650840286974,0
0.00018186042906891914,0.0007534679285492214,1321.964160071142,0
0.00018349885429455414,0.0007563006124779557,1324.2774798553105,0
0.000185137279520189,0.0007591332964066896,1326.590799639479,0
0.00018677570474582385,0.0007619659803354237,1328.9041194236472,0
0.0001884316019850194,0.0007648004176103134,1331.2174392078157,0
0.00019010058081512027,0.0007676361676450083,1333.530758991984,0
0.00019176955964522114,0.0007704719176797032,1335.8440787761524,0
0.00019343853847532196,0.000773307667714398,1338.1573985603206,0
0.0001951075173054228,0.0007761434177490929,1340.470718344489,0
0.0001967764961355238,0.000778979167783788,1342.7840381286574,0
0.00019845550443698263,0.0007818171992804595,1345.0973579128256,0
0.0002001548749450251,0.0007846598626862742,1347.4106776969938,0
0.0002018542454530677,0.000787502526092089,1349.7239974811623,0
0.00020355361596111006,0.0007903451894979033,1352.0373172653306,0
0.00020525298646915265,0.0007931878529037181,1354.350637049499,0
0.00020695235697719514,0.0007960305163095328,1356.6639568336673,0
0.00020865282733125836,0.0007988734504616903,1358.9772766178357,0
0.00021038328255677553,0.0008017237659146232,1361.2905964020042,0
0.00021211373778229245,0.000804574081367556,1363.6039161861722,0
0.0002138441930078096,0.000807424396820489,1365.9172359703407,0
0.00021557464823332662,0.0008102747122734218,1368.230555754509,0
0.00021730510345884367,0.0008131250277263547,1370.5438755386772,0
0.00021903555868436084,0.0008159753431792876,1372.8571953228457,0
0.00022078677877885683,0.0008188320596503242,1375.170515107014,0
0.0002225472952926558,0.0008216916418533007,1377.4838348911824,0
0.0002243078118064546,0.000824551224056277,1379.7971546753506,0
0.00022606832832025337,0.0008274108062592534,1382.110474459519,0
0.00022782884483405234,0.0008302703884622299,1384.4237942436876,0
0.00022958936134785115,0.0008331299706652061,1386.7371140278558,0
0.00023135912558027517,0.0008359931117996085,1389.050433812024,0
0.00023315075512703008,0.0008388646676747118,1391.3637535961923,0
0.00023494238467378493,0.0008417362235498153,1393.6770733803605,0
0.00023673401422053995,0.0008446077794249191,1395.990393164529,0
0.0002385256437672948,0.0008474793353000226,1398.3037129486975,0
0.00024031727331404968,0.0008503508911751261,1400.6170327328657,0
0.0002421089028608047,0.0008532224470502298,1402.9303525170342,0
0.00024392685141752459,0.0008561046151247707,1405.2436723012024,0
0.00024574897500014427,0.000858988466629181,1407.556992085371,0
0.0002475710985827639,0.0008618723181335912,1409.8703118695391,0
0.00024939322216538346,0.0008647561696380015,1412.1836316537074,0
0.0002512153457480032,0.000867640021142412,1414.4969514378759,0
0.00025303746933062266,0.0008705238726468219,1416.8102712220439,0
0.0002548714768994897,0.0008734132554233702,1419.1235910062123,0
0.00025672426796395306,0.0008763113807736377,1421.4369107903808,0
0.0002585770590284164,0.0008792095061239054,1423.750230574549,0
0.00026042985009287983,0.0008821076314741731,1426.0635503587175,0
0.000262282641157343,0.0008850057568244404,1428.3768701428858,0
0.00026413543222180645,0.0008879038821747082,1430.6901899270542,0
0.0002659882232862698,0.0008908020075249758,1433.0035097112225,0
0.00026786767026594694,0.000893713538158071,1435.3168294953907,0
0.0002697509135467821,0.000896626977954304,1437.6301492795592,0
0.000271634156827617,0.0008995404177505365,1439.9434690637272,0
0.00027351740010845215,0.0009024538575467695,1442.2567888478957,0
0.0002754006433892872,0.0009053672973430023,1444.5701086320641,0
0.0002772838866701223,0.000908280737139235,1446.8834284162324,0
0.00027917717507149037,0.0009111997852888424,1449.1967482004009,0
0.0002810910127068762,0.0009141303064083922,1451.510067984569,0
0.00028300485034226205,0.0009170608275279418,1453.8233877687376,0
0.00028491868797764783,0.0009199913486474915,1456.1367075529058,0
0.0002868325256130336,0.0009229218697670413,1458.450027337074,0
0.0002887463632484196,0.0009258523908865911,1460.7633471212425,0
0.0002906602008838054,0.0009287829120061409,1463.0766669054108,0
0.00029259710317466436,0.0009317266190213323,1465.389986689579,0
0.0002945416581534633,0.0009346747010225138,1467.7033064737475,0
0.00029648621313226194,0.0009376227830236948,1470.0166262579157,0
0.0002984307681110609,0.0009405708650248763,1472.3299460420842,0
0.00030037532308985974,0.0009435189470260575,1474.6432658262524,0
0.00030231987806865853,0.0009464670290272387,1476.956585610421,0
0.00030426889064542363,0.0009494177974603484,1479.2699053945894,0
0.0003062443220899503,0.0009523844875827621,1481.5832251787574,0
0.00030821975353447726,0.0009553511777051762,1483.8965449629259,0
0.00031019518497900405,0.00095831786782759,1486.2098647470941,0
0.0003121706164235309,0.000961284557950004,1488.5231845312624,0
0.00031414604786805784,0.0009642512480724181,1490.8365043154308,0
0.00031612147931258446,0.0009672179381948319,1493.149824099599,0
0.0003181123491516664,0.0009701944410757432,1495.4631438837675,0
0.0003201179638556668,0.0009731803159025522,1497.7764636679358,0
0.00032212357855966725,0.0009761661907293613,1500.0897834521043,0
0.0003241291932636678,0.0009791520655561706,1502.4031032362727,0
0.00032613480796766814,0.0009821379403829795,1504.7164230204407,0
0.0003281404226716687,0.0009851238152097889,1507.0297428046092,0
0.00033014603737566915,0.0009881096900365978,1509.3430625887775,0
0.00033217783120567885,0.0009911128945258641,1511.6563823729457,0
0.0003342141677587597,0.0009941191061383415,1513.9697021571142,0
0.00033625050431184046,0.0009971253177508185,1516.2830219412826,0
0.00033828684086492113,0.0010001315293632954,1518.5963417254509,0
0.0003403231774180019,0.0010031377409757726,1520.9096615096191,0
0.00034235951397108263,0.0010061439525882495,1523.2229812937876,0
0.0003444010835446752,0.0010091538532099134,1525.536301077956,0
0.00034646819605391296,0.001012181760281969,1527.8496208621243,0
0.00034853530856315064,0.0010152096673540245,1530.1629406462926,0
0.00035060242107238853,0.0010182375744260804,1532.476260430461,0
0.0003526695335816261,0.0010212654814981356,1534.789580214629,0
0.000354736646090864,0.0010242933885701916,1537.1028999987975,0
0.00035680375860010156,0.0010273212956422469,1539.4162197829658,0
0.00035888517633577446,0.0010303592303595357,1541.7295395671342,0
0.0003609828094294598,0.0010334085316817654,1544.0428593513027,0
0.00036308044252314497,0.0010364578330039945,1546.356179135471,0
0.0003651780756168303,0.0010395071343262243,1548.6694989196394,0
0.00036727570871051537,0.0010425564356484533,1550.9828187038074,0
0.00036937334180420076,0.0010456057369706828,1553.296138487976,0
0.0003714709748978861,0.0010486550382929126,1555.6094582721444,0
0.0003735917142969295,0.0010517214272649656,1557.9227780563124,0
0.0003757202997524733,0.0010547936185781508,1560.2360978404809,0
0.00037784888520801693,0.0010578658098913353,1562.549417624649,0
0.0003799774706635608,0.0010609380012045202,1564.8627374088176,0
0.00038210605611910476,0.0010640101925177053,1567.176057192986,0
0.0003842346415746483,0.00106708238383089,1569.4893769771543,0
0.0003863634692778054,0.001070154761405947,1571.8026967613227,0
0.000388522338625507,0.001073250237714053,1574.1160165454908,0
0.00039068120797320906,0.0010763457140221596,1576.4293363296592,0
0.000392840077320911,0.0010794411903302663,1578.7426561138277,0
0.000394998946668613,0.001082536666638373,1581.0559758979962,0
0.00039715781601631467,0.001085632142946479,1583.3692956821642,0
0.0003993166853640163,0.0010887276192545852,1585.6826154663324,0
0.00040148331869088223,0.001091828919112375,1587.995935250501,0
0.00040367291729304517,0.001094947444598783,1590.3092550346694,0
0.0004058625158952081,0.001098065970085191,1592.6225748188378,0
0.0004080521144973707,0.0011011844955715986,1594.935894603006,0
0.00041024171309953357,0.0011043030210580065,1597.2492143871746,0
0.00041243131170169624,0.001107421546544414,1599.5625341713426,0
0.0004146209103038591,0.001110540072030822,1601.875853955511,0
