pressure,epsilon,muB,phase_index
2.563318e-09,1.170775e-06,852.0,1
9.680545988642345e-09,3.743290941941072e-06,854.3974881208417,1
1.679777397728418e-08,6.3158068838819614e-06,856.7949762416833,1
3.390944884120321e-08,1.0487685641706588e-05,859.192464362525,1
6.112083512160493e-08,1.6275772188942253e-05,861.5899524833667,1
8.833222140200665e-08,2.206385873617792e-05,863.9874406042085,1
1.5532894494999775e-07,3.29908716461791e-05,866.38492872505,1
2.2253518410833232e-07,4.394494692054254e-05,868.7824168458917,1
3.214148059592186e-07,5.673887160763284e-05,871.1799049667335,1
4.5297924420412333e-07,7.14313980585872e-05,873.5773930875753,1
5.845436824490186e-07,8.612392450954053e-05,875.9748812084167,1
7.86127494341301e-07,9.997969257437213e-05,878.3723693292585,1
9.884526756450595e-07,0.0001138266009902244,880.7698574501003,1
1.2211066816832206e-06,0.0001267222511737718,883.167345570942,1
1.4857210418126845e-06,0.00013861547049483051,885.5648336917835,1
1.7503354019421672e-06,0.00015050868981589005,887.9623218126253,1
2.069522333291352e-06,0.00016087908445671783,890.359809933467,1
2.3895806041220446e-06,0.00017122516473526214,892.7572980543085,1
2.7311240566701555e-06,0.0001810253968352499,895.1547861751503,1
3.095788393151838e-06,0.00019023822443720842,897.552274295992,1
3.4604527296335206e-06,0.0001994510520391669,899.9497624168337,1
3.8683894121940665e-06,0.00020792578670955278,902.3472505376753,1
4.2772522413461735e-06,0.00021638472417191262,904.744738658517,1
4.705163415384257e-06,0.00022459039188306264,907.1422267793587,1
5.15400795518358e-06,0.00023251772631276117,909.5397149002005,1
5.6028524949828725e-06,0.0002404450607424591,911.937203021042,1
6.087834551621844e-06,0.0002478639383529744,914.3346911418837,1
6.573788611299616e-06,0.00025526913982808897,916.7321792627255,1
7.076204748924422e-06,0.0002624584430384141,919.1296673835673,1
7.597096204243123e-06,0.00026940544457549996,921.5271555044087,1
8.117987659561863e-06,0.00027635244611258627,923.9246436252505,1
8.670683418297036e-06,0.0002829081297482603,926.3221317460923,1
9.224411270500178e-06,0.0002894511145788494,928.719619866934,1
9.792570296058692e-06,0.000295826942817534,931.1171079877755,1
1.0377269698969572e-05,0.00030201118350897454,933.5145961086173,1
1.0961969101880453e-05,0.00030819542420041507,935.912084229459,1
1.1574772151007199e-05,0.0003140632149869915,938.3095723503005,1
1.218864498853519e-05,0.00031991895984774136,940.7070604711423,1
1.2815343476130432e-05,0.0003256432081986156,943.104548591984,1
1.345705514655493e-05,0.00033121353209857924,945.5020367128257,1
1.4098766816979381e-05,0.00033678385599854256,947.8995248336673,1
1.4765810711937188e-05,0.00034208987027454065,950.297012954509,1
1.5433962680521033e-05,0.0003473843232080662,952.6945010753507,1
1.611354959597101e-05,0.0003525640808763516,955.0919891961925,1
1.6806807260993554e-05,0.0003576067176409176,957.489477317034,1
1.7500064926016147e-05,0.000362649354405484,959.8869654378757,1
1.821628515672645e-05,0.0003674695615418833,962.2844535587175,1
1.893364157317699e-05,0.0003722787628797501,964.681941679559,1
1.96613893005061e-05,0.0003769898980202508,967.0794298004007,1
2.0401825535933324e-05,0.00038158128756233953,969.4769179212425,1
2.114226177136055e-05,0.0003861726771044282,971.8744060420843,1
2.1902713394363157e-05,0.0003905707663181545,974.271894162926,1
2.266427150013494e-05,0.00039495816957929456,976.6693822837675,1
2.3435237624758095e-05,0.000399259867584598,979.0668704046093,1
2.4217937579942224e-05,0.000403454672633364,981.464358525451,1
2.5000637535126295e-05,0.0004076494776821298,983.8618466462925,1
2.5802266950101064e-05,0.00041168146000534437,986.2593347671343,1
2.6605053859924316e-05,0.00041570348607686844,988.656822887976,1
2.741634730240371e-05,0.0004196801416313131,991.0543110088176,1
2.823847794554856e-05,0.00042359899579737,993.4517991296593,1
2.9060608588693464e-05,0.0004275178499634272,995.849287250501,1
2.9899552600867252e-05,0.0004311728952546326,998.2467753713427,1
3.0739624446783126e-05,0.0004348102443571677,1000.6442634921845,1
3.158748338600631e-05,0.00043841432685819316,1003.041751613026,1
3.2445476455625474e-05,0.00044197511617340265,1005.4392397338677,1
3.3303469525244635e-05,0.0004455359054886121,1007.8367278547095,1
3.4177921319216964e-05,0.0004489739618728977,1010.234215975551,1
3.5053575884659666e-05,0.0004524030491740023,1012.6317040963927,1
3.5935693777226593e-05,0.0004557811400007429,1015.0291922172345,1
3.6826404568068184e-05,0.00045909143176545977,1017.4266803380763,1
3.77171153589097e-05,0.00046240172353017645,1019.8241684589177,1
3.862297044210331e-05,0.00046561085586529496,1022.2216565797595,1
3.953002411030197e-05,0.00046881198200424275,1024.6191447006013,1
4.044364522652714e-05,0.00047197091788110077,1027.016632821443,1
4.136618666798637e-05,0.00047507254826303344,1029.4141209422846,1
4.228872810944566e-05,0.0004781741786449664,1031.8116090631263,1
4.322491808967324e-05,0.0004811927101544958,1034.209097183968,1
4.416227201190573e-05,0.00048420415502494944,1036.6065853048094,1
4.510569388454064e-05,0.0004871813777261459,1039.0040734256513,1
4.6057536626650156e-05,0.0004901111082098145,1041.401561546493,1
4.700937936875966e-05,0.0004930408386934831,1043.7990496673347,1
4.797407917872264e-05,0.0004959031354670546,1046.1965377881766,1
4.8939955217966086e-05,0.0004987592630654131,1048.594025909018,1
4.99115208952176e-05,0.0005015879587756123,1050.9915140298597,1
5.089115452046121e-05,0.0005043777558692945,1053.3890021507013,1
5.1870788145704736e-05,0.0005071675529629765,1055.786490271543,1
5.286266660980164e-05,0.0005099032237921673,1058.1839783923847,1
5.385574215177611e-05,0.0005126336031385879,1060.5814665132266,1
5.485416441764355e-05,0.0005153421844284897,1062.978954634068,1
5.586033424057134e-05,0.0005180191797060863,1065.3764427549097,1
5.6866504063499125e-05,0.0005206961749836829,1067.7739308757514,1
5.78844104061035e-05,0.0005233299590232472,1070.1714189965933,1
5.890353865232444e-05,0.000525959244287239,1072.568907117435,1
5.992778718264944e-05,0.000528571424355513,1074.9663952382766,1
6.09596181200973e-05,0.0005311582740797659,1077.3638833591183,1
6.199144905754517e-05,0.0005337451238040188,1079.76137147996,1
6.303446648582444e-05,0.0005362978275655854,1082.1588596008014,1
6.40787204075518e-05,0.0005388467570193937,1084.5563477216433,1
6.512788022496234e-05,0.000541382253285087,1086.953835842485,1
6.61844652272579e-05,0.0005438974181145266,1089.3513239633266,1
6.724105022955344e-05,0.0005464125829439663,1091.7488120841685,1
6.830853128255636e-05,0.0005489009905641835,1094.14630020501,1
6.937728753287872e-05,0.0005513862667083834,1096.5437883258517,1
7.045077055975757e-05,0.0005538611417478473,1098.9412764466933,1
7.153156619626e-05,0.0005563199256483117,1101.338764567535,1
7.261236183276253e-05,0.0005587787095487763,1103.7362526883767,1
7.370372659874005e-05,0.00056121647610227,1106.1337408092186,1
7.479639779306771e-05,0.0005636516447447441,1108.53122893006,1
7.589365065817992e-05,0.0005660787645061106,1110.9287170509017,1
7.69981494605705e-05,0.0005684931549182042,1113.3262051717434,1
7.810264826296108e-05,0.0005709075453302979,1115.7236932925853,1
7.921749489534683e-05,0.0005733059915287674,1118.121181413427,1
8.03336894439535e-05,0.0005757023608218191,1120.5186695342686,1
8.145432124946983e-05,0.0005780925613199934,1122.9161576551103,1
8.258212763220852e-05,0.0005804727875263651,1125.313645775952,1
8.370993401494713e-05,0.0005828530137327366,1127.7111338967934,1
8.484790044144079e-05,0.0005852206936381033,1130.1086220176353,1
8.59872587211084e-05,0.000587586654790156,1132.506110138477,1
8.713094071844687e-05,0.0005899481581907959,1134.9035982593186,1
8.82817709787727e-05,0.0005923022917347858,1137.3010863801605,1
8.943260123909847e-05,0.0005946564252787755,1139.698574501002,1
9.05934262246928e-05,0.0005970024540472942,1142.0960626218437,1
9.175568850754153e-05,0.0005993473173038834,1144.4935507426853,1
9.292217579966804e-05,0.0006016875174570868,1146.891038863527,1
9.40958061720231e-05,0.000604019833859177,1149.2885269843687,1
9.526943654437815e-05,0.0006063521502612672,1151.6860151052106,1
9.645290799697083e-05,0.000608682244259916,1154.083503226052,1
9.763786250488331e-05,0.0006110120033413441,1156.4809913468937,1
9.882697222067818e-05,0.0006133368722204016,1158.8784794677354,1
0.00010002326684740226,0.0006156532852846235,1161.2759675885773,1
0.00010121956147412634,0.0006179696983488454,1163.673455709419,1
0.00010242556537584119,0.0006202840749849675,1166.0709438302606,1
0.00010363310022603848,0.0006225981305192039,1168.4684319511023,1
0.00010484469046857271,0.0006249090543091802,1170.865920071944,1
0.00010606345355480251,0.000627214438928046,1173.2634081927854,1
0.00010728221664103242,0.000629519823546912,1175.6608963136273,1
0.00010851072274691878,0.0006318287417257239,1178.058384434469,1
0.00010974083394358724,0.0006341382420325306,1180.4558725553106,1
0.00011097487059936609,0.0006364453244840885,1182.8533606761523,1
0.0001122160102413905,0.0006387480319078861,1185.250848796994,1
0.0001134571498834149,0.0006410507393316839,1187.6483369178356,1
0.00011470800719437305,0.000643351400930443,1190.0458250386773,1
0.00011596053490497137,0.0006456517108661198,1192.443313159519,1
0.00011721693030145945,0.0006479514602676098,1194.8408012803607,1
0.00011848048645741373,0.0006502501718778729,1197.2382894012026,1
0.00011974404261336792,0.0006525488834881358,1199.635777522044,1
0.00012101712123008304,0.0006548467817921417,1202.0332656428857,1
0.00012229190562206997,0.0006571445344071565,1204.4307537637274,1
0.00012357054133882008,0.0006594422456100769,1206.8282418845693,1
0.0001248564740505689,0.0006617398783506855,1209.225730005411,1
0.0001261424067623176,0.000664037511091294,1211.6232181262526,1
0.00012743783679342778,0.0006663344365847162,1214.0207062470943,1
0.00012873503769934453,0.0006686312302044827,1216.418194367936,1
0.00013003600433941773,0.0006709282821237036,1218.8156824887774,1
0.00013134427364882572,0.0006732258349480416,1221.2131706096193,1
0.00013265254295823372,0.0006755233877723796,1223.610658730461,1
0.00013397018361961433,0.0006778218777319146,1226.0081468513026,1
0.0001352896412069196,0.0006801205493840423,1228.4056349721443,1
0.00013661284670199211,0.0006824195556707921,1230.803123092986,1
0.0001379434925671946,0.0006847192262763034,1233.2006112138276,1
0.0001392741384323971,0.0006870188968818149,1235.5980993346693,1
0.0001406141302988495,0.0006893198978789631,1237.995587455511,1
0.0001419560044000846,0.0006916211668098884,1240.3930755763527,1
0.00014330295128504338,0.000693919998169414,1242.7905636971946,1
0.00014466020926838714,0.0006962138748452998,1245.188051818036,1
0.00014601746725173098,0.0006985077515211858,1247.5855399388777,1
0.00014737723707061715,0.0007008186822383854,1249.9830280597193,1
0.0001487375318722473,0.0007031331773121105,1252.380516180561,1
0.00015010270216749978,0.0007054454421068385,1254.778004301403,1
0.00015147802122802056,0.0007077530643812839,1257.1754924222446,1
0.00015285334028854143,0.0007100606866557296,1259.5729805430863,1
0.00015423805191636033,0.0007123704764457053,1261.970468663928,1
0.0001556247990035904,0.0007146807359570836,1264.3679567847694,1
0.00015701514368187698,0.0007169918884875185,1266.7654449056113,1
0.00015841315896327515,0.0007193049450683714,1269.162933026453,1
0.0001598111742446732,0.000721618001649224,1271.5604211472946,1
0.00016121832643598935,0.0007239335382484831,1273.9579092681363,1
0.00016262752999528476,0.0007262496316476221,1276.355397388978,1
0.0001640402972126599,0.0007285667037979238,1278.7528855098194,1
0.00016546084888239404,0.0007308859139316203,1281.1503736306613,1
0.00016688140055212802,0.0007332051240653163,1283.547861751503,1
0.00016831103052126638,0.0007355272522238212,1285.9453498723447,1
0.0001697427704688977,0.0007378500585896986,1288.3428379931865,1
0.00017117802696557058,0.0007401739260896728,1290.740326114028,1
0.0001726211549817759,0.0007425001688551901,1293.1378142348697,1
0.00017406428299798123,0.0007448264116207077,1295.5353023557113,1
0.00017551655955577549,0.0007471554891455906,1297.932790476553,1
0.00017697103568241958,0.0007494852482270185,1300.330278597395,1
0.00017842894444208447,0.0007518162323824221,1302.7277667182366,1
0.00017989472872103176,0.0007541500272355201,1305.1252548390783,1
0.00018136051299997902,0.0007564838220886182,1307.52274295992,1
0.00018283599444588407,0.0007588238896965797,1309.9202310807614,1
0.0001843138860398416,0.000761165516344206,1312.3177192016033,1
0.00018579473382406524,0.0007635059271393839,1314.715207322445,1
0.00018728253503558882,0.0007658434780572043,1317.1126954432866,1
0.0001887703362471125,0.000768181028975025,1319.5101835641283,1
0.00019026773940611718,0.0007705250341820464,1321.90767168497,1
0.00019176760797451567,0.0007728706966013424,1324.3051598058114,1
0.00019327084925296233,0.0007752175886545105,1326.7026479266533,1
0.0001947822257643408,0.0007775674466780181,1329.100136047495,1
0.00019629360227571945,0.0007799173047015258,1331.4976241683366,1
0.00019781401215567646,0.0007822704475863346,1333.8951122891785,1
0.00019933681669376434,0.0007846244612559183,1336.29260041002,1
0.00020086299116417802,0.0007869798320996127,1338.6900885308617,1
0.00020239750343592277,0.0007893385608291676,1341.0875766517033,1
0.00020393201570766744,0.0007916972895587222,1343.485064772545,1
0.00020547515634684033,0.0007940593127558405,1345.882552893387,1
0.0002070206571058055,0.0007964222370896066,1348.2800410142286,1
0.0002085694777575326,0.0007987864487287296,1350.6775291350702,1
0.00021012672620829,0.0008011539282899254,1353.075017255912,1
0.00021168397465904726,0.0008035214078511212,1355.4725053767534,1
0.0002132502302451514,0.0008058925338996373,1357.8699934975953,1
0.0002148190265970242,0.0008082646885626688,1360.267481618437,1
0.0002163910037208164,0.0008106380180055729,1362.6649697392786,1
0.0002179712680575339,0.0008130144082309511,1365.0624578601203,1
0.00021955153239425136,0.0008153907984563295,1367.459945980962,1
0.00022114083624359752,0.0008177714607801418,1369.8574341018034,1
0.00022273276835583656,0.0008201533652281983,1372.2549222226453,1
0.00022432786465824124,0.0008225415219420461,1374.652410343487,1
0.00022593142458786627,0.0008249464023179269,1377.0498984643286,1
0.00022753498451749126,0.0008273512826938081,1379.4473865851705,1
0.0002291482300393227,0.000829769599907131,1381.844874706012,1
0.00023076437678158206,0.0008321919419881587,1384.2423628268537,1
0.00023238322156200427,0.0008346178139135812,1386.6398509476953,1
0.00023400947771250644,0.0008370533821374089,1389.037339068537,1
0.00023563573386300874,0.0008394889503612368,1391.4348271893787,1
0.00023731937202130942,0.000841933527468673,1393.8323153102206,1
0.0002390207095081293,0.0008443808833424281,1396.229803431062,1
0.0002406925329274323,0.0008468307902018279,1398.627291551904,1
0.00024228106859816657,0.0008492878958606077,1401.0247796727454,1
0.00024386960426890097,0.0008517450015193877,1403.4222677935873,1
0.0002455145827022479,0.0008542111756284746,1405.819755914429,1
0.0002471774804628636,0.0008566802287697233,1408.2172440352706,1
0.00024884346212979597,0.0008591514949467342,1410.6147321561123,1
0.0002505183872891513,0.000861629179045218,1413.012220276954,1
0.0002521933124485065,0.0008641068631437018,1415.4097083977954,1
0.00025387736395028116,0.0008666286127172986,1417.8071965186373,1
0.0002557373496756068,0.0008747676487441834,1420.204684639479,0
0.00025765755309834697,0.0008777712201256796,1422.6021727603206,0
0.00025957775652108713,0.0008807747915071756,1424.9996608811625,0
0.00026149795994382714,0.0008837783628886716,1427.397149002004,0
0.0002634181633665673,0.0008867819342701676,1429.7946371228456,0
0.0002653383667893075,0.0008897855056516638,1432.1921252436873,0
0.0002672756531563658,0.0008927976680606401,1434.589613364529,0
0.000269227416775627,0.0008958171110922774,1436.9871014853707,0
0.0002711791803948883,0.0008988365541239147,1439.3845896062126,0
0.0002731309440141494,0.0009018559971555517,1441.782077727054,0
0.0002750827076334108,0.0009048754401871892,1444.179565847896,0
0.0002770344712526719,0.0009078948832188262,1446.5770539687373,0
0.0002789933412493731,0.0009109182938560053,1448.9745420895792,0
0.00028097681237492135,0.0009139554397015904,1451.372030210421,0
0.0002829602835004694,0.000916992585547175,1453.7695183312626,0
0.00028494375462601767,0.0009200297313927599,1456.1670064521043,0
0.0002869272257515659,0.0009230668772383448,1458.564494572946,0
0.000288910696877114,0.0009261040230839296,1460.9619826937874,0
0.0002908941680026624,0.0009291411689295149,1463.3594708146293,0
0.0002929055766130163,0.0009321942864318005,1465.756958935471,0
0.00029492088270856743,0.0009352496320980029,1468.1544470563126,0
0.00029693618880411886,0.0009383049777642056,1470.5519351771545,0
0.00029895149489967,0.000941360323430408,1472.949423297996,0
0.0003009668009952213,0.0009444156690966106,1475.3469114188376,0
0.0003029821070907726,0.0009474710147628133,1477.7443995396793,0
0.00030501350935269433,0.0009505360610021916,1480.141887660521,0
0.0003070608153301051,0.0009536106918316092,1482.5393757813627,0
0.0003091081213075158,0.0009566853226610269,1484.9368639022045,0
0.0003111554272849264,0.0009597599534904445,1487.334352023046,0
0.00031320273326233724,0.0009628345843198624,1489.731840143888,0
0.00031525003923974784,0.0009659092151492798,1492.1293282647293,0
0.00031730056678980076,0.0009689858936342493,1494.5268163855712,0
0.00031937915422104745,0.0009720804071885735,1496.924304506413,0
0.00032145774165229403,0.0009751749207428975,1499.3217926272546,0
0.0003235363290835407,0.0009782694342972216,1501.7192807480963,0
0.00032561491651478746,0.0009813639478515458,1504.116768868938,0
0.00032769350394603393,0.0009844584614058698,1506.5142569897794,0
0.0003297720913772807,0.000987552974960194,1508.9117451106213,0
0.00033187224764952283,0.0009906617663301303,1511.309233231463,0
0.0003339826747203749,0.0009937773566082123,1513.7067213523046,0
0.0003360931017912273,0.0009968929468862947,1516.1042094731465,0
0.0003382035288620794,0.001000008537164377,1518.501697593988,0
0.00034031395593293163,0.0010031241274424591,1520.8991857148296,0
0.0003424243830037838,0.0010062397177205416,1523.2966738356713,0
0.0003445421432455509,0.001009360477505376,1525.694161956513,0
0.00034668446603172915,0.0010124985526154177,1528.0916500773546,0
0.0003488267888179074,0.0010156366277254598,1530.4891381981965,0
0.00035096911160408553,0.0010187747028355015,1532.886626319038,0
0.00035311143439026397,0.0010219127779455435,1535.2841144398799,0
0.0003552537571764421,0.001025050853055585,1537.6816025607213,0
0.00035739607996262024,0.0010281889281656266,1540.079090681563,0
0.00035956256397275805,0.001031343939755728,1542.476578802405,0
0.00036173651781105215,0.0010345041875290551,1544.8740669232466,0
0.0003639104716493463,0.0010376644353023822,1547.271555044088,0
0.0003660844254876408,0.0010408246830757098,1549.66904316493,0
0.0003682583793259349,0.001043984930849037,1552.0665312857714,0
0.0003704323331642291,0.001047145178622364,1554.464019406613,0
0.00037261519344253507,0.001050312012915074,1556.861507527455,0
0.00037482122582024066,0.0010534959835138303,1559.2589956482966,0
0.00037702725819794663,0.0010566799541125872,1561.6564837691385,0
0.0003792332905756522,0.0010598639247113434,1564.05397188998,0
0.00038143932295335814,0.0010630478953101003,1566.4514600108218,0
0.00038364535533106373,0.0010662318659088565,1568.8489481316633,0
0.00038585138770876943,0.001069415836507613,1571.246436252505,0
0.00038808176602214,0.0010726185264633582,1573.6439243733469,0
0.0003903191841478078,0.0010758266292634213,1576.0414124941885,0
0.0003925566022734756,0.0010790347320634845,1578.43890061503,0
0.00039479402039914376,0.001082242834863548,1580.8363887358719,0
0.00039703143852481157,0.001085450937663611,1583.2338768567133,0
0.0003992688566504794,0.001088659040463674,1585.631364977555,0
0.00040151447602340175,0.0010918732947963266,1588.028853098397,0
