pressure,epsilon,muB,phase_index
1.368801e-07,1.558437e-05,828.0,1
1.5284797213687237e-07,2.3135523240446055e-05,830.4455843132264,1
1.6881584427374467e-07,3.068667648089211e-05,832.8911686264529,1
2.2612852682862565e-07,3.9626744988645355e-05,835.3367529396794,1
3.177365691048342e-07,4.97189133181938e-05,837.7823372529058,1
4.140743143645576e-07,5.98362992696884e-05,840.2279215661322,1
5.564317772374691e-07,7.019905112362608e-05,842.6735058793587,1
6.987892401103806e-07,8.056180297756376e-05,845.1190901925852,1
8.72623520795788e-07,9.054772905468514e-05,847.5646745058116,1
1.0641792108952614e-06,0.00010032150268652078,850.010258819038,1
1.264101597792028e-06,0.00010990737853897556,852.4558431322645,1
1.5005443575712307e-06,0.00011867308639287313,854.901427445491,1
1.7369871173504336e-06,0.00012743879424677068,857.3470117587174,1
2.0031520163005008e-06,0.0001356407903892443,859.7925960719438,1
2.280143786785155e-06,0.00014363744349610923,862.2381803851703,1
2.5675967013121465e-06,0.00015143738889532375,864.6837646983968,1
2.8820042813996224e-06,0.000158730488155012,867.1293490116232,1
3.1964118614871208e-06,0.0001660235874147008,869.5749333248498,1
3.5394424311885248e-06,0.00017303782156504054,872.0205176380762,1
3.888494566254552e-06,0.00017999338942976497,874.4661019513027,1
4.249617579410656e-06,0.00018676286693312794,876.9116862645292,1
4.631049658381188e-06,0.00019321925027978435,879.3572705777556,1
5.012481737351719e-06,0.0001996756336264407,881.802854890982,1
5.422065024638676e-06,0.00020587187255717018,884.2484392042085,1
5.8341166344055735e-06,0.00021204530179878627,886.694023517435,1
6.2599267295120465e-06,0.0002181083220350751,889.1396078306614,1
6.701503878692527e-06,0.0002240448149164781,891.5851921438878,1
7.143447662677201e-06,0.00022997818398748398,894.0307764571143,1
7.6141586501837625e-06,0.00023566645006109447,896.4763607703408,1
8.084869637690324e-06,0.00024135471613470497,898.9219450835672,1
8.570029940803406e-06,0.00024691922079790563,901.3675293967935,1
9.06658097216352e-06,0.0002523861614911692,903.81311371002,1
9.565929175899985e-06,0.00025783037125145673,906.2586980232466,1
1.0088923087646857e-05,0.00026308242660306476,908.7042823364729,1
1.061191699939373e-05,0.00026833448195467274,911.1498666496993,1
1.1151292469810937e-05,0.00027345916713774054,913.5954509629258,1
1.1699396826091251e-05,0.00027851598334167595,916.0410352761523,1
1.2252308172881976e-05,0.0002835364409519583,918.4866195893787,1
1.2824570826203108e-05,0.00028841053124795715,920.9322039026051,1
1.3396833479524242e-05,0.00029328462154395605,923.3777882158316,1
1.3986439444550933e-05,0.00029803083264658364,925.8233725290581,1
1.4581963680664706e-05,0.00030273340596274824,928.2689568422845,1
1.5184048595487994e-05,0.0003073707654894532,930.7145411555109,1
1.5802027371571042e-05,0.0003118501384772973,933.1601254687374,1
1.6420006147654087e-05,0.0003163295114651414,935.6057097819639,1
1.7056241441184327e-05,0.0003207821150650433,938.0512940951903,1
1.769598591765509e-05,0.0003252295731775998,940.4968784084167,1
1.834379473348071e-05,0.00032959707903593686,942.9424627216432,1
1.900446525972498e-05,0.00033383707007925465,945.3880470348697,1
1.966513578596925e-05,0.00033807706112257244,947.8336313480961,1
2.0344784581286845e-05,0.0003421863391477137,950.2792156613227,1
2.1025818672912535e-05,0.0003462860759306677,952.724799974549,1
2.1716206085638125e-05,0.0003503217146674618,955.1703842877756,1
2.2416784471900342e-05,0.00035428751494952806,957.6159686010019,1
2.311784676665669e-05,0.0003582500816518341,960.0615529142285,1
2.3837651521594774e-05,0.00036208740723797916,962.5071372274549,1
2.455745627653286e-05,0.0003659247328241242,964.9527215406814,1
2.5287496630321547e-05,0.0003696916304054274,967.3983058539079,1
2.602520306243245e-05,0.000373405780061663,969.8438901671343,1
2.6765165465660296e-05,0.00037710604941656523,972.2894744803607,1
2.7521931151518947e-05,0.00038070293330498155,974.7350587935872,1
2.8278696837377595e-05,0.00038429981719339786,977.1806431068137,1
2.904554242286146e-05,0.0003878218404129118,979.6262274200401,1
2.981746665548825e-05,0.00039130614590344266,982.0718117332665,1
3.059314200945212e-05,0.00039476769459119524,984.517396046493,1
3.138279672834981e-05,0.00039814443513168265,986.9629803597195,1
3.2172451447247494e-05,0.00040152117567217007,989.4085646729459,1
3.29744269861583e-05,0.00040482226693402165,991.8541489861723,1
3.378033261281738e-05,0.0004080992276345294,994.2997332993988,1
3.4590978459492756e-05,0.0004113464998501343,996.7453176126253,1
3.5412438002383954e-05,0.00041452604477549854,999.1909019258517,1
3.6233897545275146e-05,0.00041770558970086283,1001.6364862390781,1
3.706838043947101e-05,0.00042080917375224384,1004.0820705523046,1
3.790513711224143e-05,0.0004238994956099139,1006.5276548655311,1
3.8747987884336184e-05,0.00042680156056910625,1008.9732391787575,1
3.960005799088127e-05,0.00042941882490112114,1011.4188234919839,1
4.045212809742635e-05,0.0004320360892331361,1013.8644078052104,1
4.131704176014995e-05,0.00043530846732993975,1016.3099921184369,1
4.2182709315476564e-05,0.0004386192993731857,1018.7555764316633,1
4.305546572113262e-05,0.0004417041730609721,1021.2011607448896,1
4.393556629988113e-05,0.00044455494993516167,1023.6467450581162,1
4.481617684452402e-05,0.00044740308311168504,1026.0923293713427,1
4.570978520062925e-05,0.00045018383475503923,1028.537913684569,1
4.660339355673454e-05,0.00045296458639839353,1030.9834979977957,1
4.750497619213522e-05,0.0004557081819016609,1033.4290823110218,1
4.8412230908708316e-05,0.0004584253483528714,1035.8746666242487,1
4.932116267269053e-05,0.00046113481810655075,1038.3202509374748,1
5.024122409911723e-05,0.00046379320901476665,1040.7658352507015,1
5.11612855255438e-05,0.0004664515999229821,1043.2114195639278,1
5.20901760209626e-05,0.0004690731224949314,1045.6570038771542,1
5.3023268335804874e-05,0.0004716770991521778,1048.1025881903809,1
5.395913805799876e-05,0.0004742699296351842,1050.5481725036072,1
5.4904621333361384e-05,0.000476824179411395,1052.9937568168336,1
5.585010460872401e-05,0.0004793784291876058,1055.4393411300603,1
5.6805103616032816e-05,0.00048189802775108417,1057.8849254432866,1
5.7762933016203373e-05,0.00048440731953567023,1060.330509756513,1
5.872463771276217e-05,0.00048690304260893695,1062.7760940697394,1
5.969467873060344e-05,0.0004893695774277801,1065.2216783829658,1
6.066471974844471e-05,0.0004918361122466232,1067.6672626961924,1
6.164491299616624e-05,0.0004942703909344558,1070.1128470094188,1
6.262670504663256e-05,0.0004966995898327836,1072.5584313226452,1
6.361431536770877e-05,0.0004991146990450215,1075.0040156358718,1
6.461027957927024e-05,0.000501509578243487,1077.4495999490982,1
6.56062437908317e-05,0.0005039044574419525,1079.8951842623246,1
6.660891040308117e-05,0.0005062695698666989,1082.340768575551,1
6.761187713772617e-05,0.0005086333493846479,1084.7863528887774,1
6.862162979312556e-05,0.0005109828794956271,1087.231937202004,1
6.963806762136258e-05,0.0005133183717550198,1089.6775215152304,1
7.065508281593508e-05,0.0005156525816620328,1092.1231058284568,1
7.168299043460115e-05,0.0005179625990848293,1094.5686901416834,1
7.271089805326721e-05,0.0005202726165076259,1097.0142744549098,1
7.37455210222667e-05,0.0005225689599199611,1099.4598587681362,1
7.478467832877361e-05,0.0005248560703696904,1101.9054430813626,1
7.582542812956064e-05,0.000527140220488392,1104.351027394589,1
7.687568023690187e-05,0.0005294067065104132,1106.7966117078156,1
7.792593234424311e-05,0.0005316731925324344,1109.242196021042,1
7.898359943318631e-05,0.0005339260919227648,1111.6877803342686,1
8.004459580761026e-05,0.0005361728909910644,1114.133364647495,1
8.110820517167708e-05,0.0005384163032079439,1116.5789489607214,1
8.218023928330139e-05,0.0005406487956080111,1119.0245332739478,1
8.325227339492583e-05,0.0005428812880080786,1121.4701175871744,1
8.433279087313241e-05,0.0005451013283457931,1123.9157019004006,1
8.541565484729062e-05,0.0005473179244478247,1126.3612862136274,1
8.650206367262996e-05,0.0005495301500011688,1128.8068705268536,1
8.759567191387094e-05,0.0005517334991881703,1131.2524548400802,1
8.868928015511183e-05,0.0005539368483751716,1133.6980391533066,1
8.979225603090146e-05,0.0005561298724424758,1136.143623466533,1
9.089655147559116e-05,0.0005583214420650353,1138.5892077797596,1
9.200534999053883e-05,0.0005605085965746645,1141.034792092986,1
9.312028780296491e-05,0.0005626897317041541,1143.4803764062124,1
9.423522561539097e-05,0.0005648708668336436,1145.925960719439,1
9.536042826523345e-05,0.0005670431481950112,1148.3715450326654,1
9.648595138176194e-05,0.0005692151531430647,1150.8171293458918,1
9.761693573486612e-05,0.0005713837698094662,1153.2627136591182,1
9.875303600354933e-05,0.0005735492124396127,1155.7082979723446,1
9.988979386253289e-05,0.0005757140523641404,1158.1538822855712,1
0.00010103634492818126,0.0005778699164557267,1160.5994665987976,1
0.00010218289599382966,0.0005800257805473128,1163.045050912024,1
0.0001033358443689864,0.0005821763031960087,1165.4906352252506,1
0.0001044928910673124,0.0005843234039438058,1167.936219538477,1
0.00010565157315880318,0.0005864708864954546,1170.3818038517034,1
0.0001068190951099375,0.000588620432827565,1172.8273881649297,1
0.0001079866170610718,0.0005907699791596754,1175.2729724781561,1
0.00010916144287856948,0.0005929137110413083,1177.7185567913828,1
0.00011033935856303499,0.0005950549831464923,1180.1641411046091,1
0.00011151988590470692,0.0005971953101772786,1182.6097254178355,1
0.00011270827684198074,0.0005993327916267771,1185.0553097310622,1
0.00011389666777925458,0.0006014702730762756,1187.5008940442885,1
0.00011509333124954786,0.0006036052889865211,1189.946478357515,1
0.00011629211592015292,0.0006057396726958895,1192.3920626707413,1
0.00011750219486425846,0.0006078732047974908,1194.8376469839677,1
0.00011873395416335361,0.0006100051021628076,1197.2832312971946,1
0.00011996571346244858,0.0006121369995281241,1199.7288156104207,1
0.00012116637884263555,0.0006142671573735019,1202.1743999236473,1
0.0001223631662860514,0.0006163970982713678,1204.6199842368737,1
0.00012357433890489375,0.0006185264886254831,1207.0655685501001,1
0.00012480414173653812,0.0006206551659714538,1209.5111528633265,1
0.00012603394456818268,0.0006227838433174249,1211.9567371765531,1
0.00012727395726615863,0.0006248900589574661,1214.4023214897793,1
0.00012851415383113442,0.0006269958700901085,1216.8479058030061,1
0.00012975989084544119,0.0006291241017180985,1219.2934901162323,1
0.0001310105626632253,0.0006312723029788367,1221.739074429459,1
0.00013226199773714564,0.0006334188730873476,1224.1846587426853,1
0.00013352277797009106,0.0006355454716866525,1226.6302430559117,1
0.00013478355820303642,0.0006376720702859571,1229.0758273691383,1
0.00013605082979249318,0.0006397987956695684,1231.5214116823647,1
0.0001373220445185083,0.0006419255980675659,1233.966995995591,1
0.0001385950127108359,0.0006440524761052865,1236.4125803088177,1
0.00013987662117018217,0.000646179726860408,1238.8581646220441,1
0.00014115822962952848,0.0006483069776155294,1241.3037489352705,1
0.0001424471852885185,0.0006504346948595171,1243.749333248497,1
0.00014373906520198038,0.0006525625977704555,1246.1949175617233,1
0.00014503367792344202,0.0006546907889072375,1248.64050187495,1
0.00014633599232997366,0.0006568197923311168,1251.0860861881763,1
0.00014763830673650532,0.0006589487957549961,1253.5316705014027,1
0.00014894909038449294,0.0006610787878062828,1255.9772548146293,1
0.00015026188004383292,0.0006632090140223187,1258.4228391278557,1
0.00015157828813417738,0.0006653398047135913,1260.868423441082,1
0.00015290126772815577,0.0006674716205594307,1263.3140077543085,1
0.00015422424732213416,0.0006696034364052702,1265.7595920675349,1
0.00015555678268042928,0.000671736832627516,1268.2051763807617,1
0.00015689035980643158,0.0006738704011421131,1270.6507606939879,1
0.00015822835885729648,0.0006760047553706326,1273.0963450072145,1
0.0001595717998400288,0.0006781400765539875,1275.5419293204409,1
0.00016091524082276128,0.0006802753977373429,1277.9875136336673,1
0.0001622693468848275,0.0006824128681572175,1280.4330979468937,1
0.0001636235076787996,0.0006845503496067161,1282.8786822601203,1
0.00016498331867681782,0.0006866889125405828,1285.3242665733464,1
0.00016634791396385974,0.0006888283912172704,1287.7698508865733,1
0.00016771344280343392,0.0006909690619687302,1290.2154351997995,1
0.00016908863562249977,0.0006931220728786176,1292.661019513026,1
0.00017046382844156544,0.0006952750837885051,1295.1066038262525,1
0.0001718453852320032,0.0006974161428497187,1297.5521881394789,1
0.00017323060494675314,0.0006995503227603941,1299.9977724527052,1
0.0001746177458741556,0.0007016868894083266,1302.4433567659319,1
0.00017601356312092954,0.0007038342347145547,1304.888941079158,1
0.00017740938036770357,0.0007059815800207834,1307.3345253923849,1
0.00017881285208621174,0.0007081309427846782,1309.7801097056113,1
0.0001802191853455326,0.0007102810597531283,1312.2256940188377,1
0.00018162839391370916,0.0007124320270074659,1314.671278332064,1
0.00018304520242583833,0.000714585241716046,1317.1168626452904,1
0.0001844620109379675,0.0007167384564246263,1319.562446958517,1
0.00018588755438612878,0.0007188942146394841,1322.0080312717434,1
0.0001873150011900205,0.0007210505270881945,1324.4536155849698,1
0.0001887461497001598,0.0007232078436434576,1326.8991998981965,1
0.0001901836641594743,0.0007253668869946512,1329.3447842114228,1
0.00019162117861878881,0.0007275259303458444,1331.7903685246492,1
0.00019306856853647058,0.0007296880294992497,1334.2359528378756,1
0.00019451688432650186,0.0007318504151490045,1336.681537151102,1
0.00019597002795347198,0.0007340143224127361,1339.1271214643286,1
0.00019742881899631159,0.0007361800096013138,1341.572705777555,1
0.00019888768899137637,0.0007383457220911837,1344.0182900907814,1
0.0002003570368065014,0.0007405147923380614,1346.463874404008,1
0.0002018263846216264,0.0007426838625849392,1348.9094587172344,1
0.00020330158170583286,0.0007448548073080088,1351.3550430304608,1
0.0002048489479615542,0.0007925119876496994,1353.8006273436874,0
0.00020664548032394968,0.0007955171809137781,1356.2462116569136,0
0.00020844201268634536,0.0007985223741778573,1358.6917959701404,0
0.00021026867080489226,0.0008015349834239448,1361.1373802833666,0
0.00021209806515980504,0.0008045482662424923,1363.5829645965932,0
0.00021392745951471758,0.0008075615490610391,1366.0285489098196,0
0.00021575685386963033,0.0008105748318795866,1368.474133223046,0
0.0002175862482245428,0.0008135881146981335,1370.9197175362724,0
0.0002194156425794556,0.0008166013975166807,1373.365301849499,0
0.00022127412334153,0.0008196236465665583,1375.8108861627252,0
0.0002231352977449948,0.0008226467259634673,1378.256470475952,0
0.0002249964721484594,0.0008256698053603757,1380.7020547891782,0
0.00022685764655192418,0.0008286928847572846,1383.1476391024048,0
0.00022871882095538873,0.000831715964154193,1385.5932234156312,0
0.00023057999535885354,0.000834739043551102,1388.0388077288576,0
0.0002324697035260352,0.0008377731040031775,1390.484392042084,0
0.000234363769856442,0.000840808841669352,1392.9299763553106,0
0.00023625783618684863,0.0008438445793355267,1395.375560668537,0
0.0002381519025172553,0.0008468803170017012,1397.8211449817636,0
0.0002400459688476619,0.0008499160546678756,1400.26672929499,0
0.00024194003517806855,0.0008529517923340502,1402.7123136082164,0
0.0002438592898459624,0.0008559976862964251,1405.1578979214428,0
0.00024578559371493506,0.0008590464225970123,1407.6034822346692,0
0.0002477118975839077,0.0008620951588975994,1410.0490665478958,0
0.0002496382014528804,0.0008651438951981864,1412.4946508611222,0
0.0002515645053218531,0.0008681926314987734,1414.9402351743486,0
0.0002534908091908258,0.0008712413677993606,1417.3858194875752,0
0.0002554383804595174,0.0008743000027798236,1419.8314038008016,0
0.0002573971052298443,0.0008773638290363073,1422.276988114028,0
0.00025935583000017114,0.0008804276552927911,1424.7225724272544,0
0.00026131455477049794,0.0008834914815492748,1427.1681567404808,0
0.0002632732795408248,0.0008865553078057586,1429.6137410537074,0
0.00026523200431115165,0.0008896191340622424,1432.0593253669338,0
0.00026720669699840574,0.0008926909905979668,1434.5049096801604,0
0.0002691976150967675,0.0008957710069069778,1436.9504939933868,0
0.00027118853319512955,0.0008988510232159892,1439.3960783066132,0
0.00027317945129349126,0.000901931039525,1441.8416626198396,0
0.0002751703693918533,0.0009050110558340114,1444.2872469330662,0
0.000277161287490215,0.0009080910721430223,1446.7328312462923,0
0.00027916200825438384,0.0009111765614390103,1449.1784155595192,0
0.0002811852699457389,0.0009142746356994722,1451.6239998727453,0
0.0002832085316370943,0.0009173727099599345,1454.069584185972,0
0.0002852317933284494,0.0009204707842203965,1456.5151684991984,0
0.00028725505501980483,0.0009235688584808587,1458.9607528124247,0
0.0002892783167111599,0.0009266669327413206,1461.4063371256511,0
0.00029130421990731956,0.0009297665171308514,1463.8519214388778,0
0.0002933599552124435,0.000932883156319923,1466.297505752104,0
0.0002954156905175677,0.0009359997955089951,1468.7430900653308,0
0.0002974714258226916,0.0009391164346980666,1471.188674378557,0
0.00029952716112781585,0.0009422330738871387,1473.6342586917835,0
0.00030158289643293987,0.0009453497130762106,1476.07984300501,0
0.00030363863173806394,0.0009484663522652824,1478.5254273182363,0
0.0003057215297374327,0.0009515993614207862,1480.971011631463,0
0.00030780990687649125,0.0009547356726542062,1483.4165959446893,0
0.00030989828401554987,0.0009578719838876259,1485.8621802579157,0
0.00031198666115460843,0.0009610082951210457,1488.3077645711423,0
0.00031407503829366704,0.0009641446063544654,1490.7533488843687,0
0.00031616341543272566,0.0009672809175878854,1493.1989331975951,0
0.00031826959745595487,0.0009704285457382173,1495.6445175108215,0
0.000320389883588485,0.0009735851385654072,1498.090101824048,0
0.0003225101697210152,0.000976741731392597,1500.5356861372745,0
0.0003246304558535454,0.000979898324219787,1502.981270450501,0
0.0003267507419860756,0.0009830549170469767,1505.4268547637273,0
0.0003288710281186058,0.0009862115098741666,1507.872439076954,0
0.00033099971941309356,0.0009893736666235276,1510.3180233901803,0
0.0003331524839226723,0.0009925517589962412,1512.7636077034067,0
0.00033530524843225105,0.000995729851368955,1515.209192016633,0
0.00033745801294182974,0.0009989079437416688,1517.6547763298595,0
0.00033961077745140865,0.0010020860361143827,1520.1003606430863,0
0.00034176354196098724,0.001005264128487096,1522.5459449563125,0
0.0003439163064705661,0.00100844222085981,1524.9915292695391,0
0.00034609959204025693,0.0010116418290035554,1527.4371135827655,0
0.0003482848921275442,0.001014842857278161,1529.882697895992,0
0.0003504701922148311,0.001018043885552766,1532.3282822092183,0
0.00035265549230211835,0.0010212449138273716,1534.773866522445,0
0.0003548407923894053,0.0010244459421019766,1537.219450835671,0
0.00035702609247669257,0.0010276469703765822,1539.665035148898,0
0.00035923072553504186,0.0010308615506334643,1542.110619462124,0
0.0003614482912273986,0.0010340851963788476,1544.5562037753507,0
0.00036366585691975493,0.0010373088421242306,1547.001788088577,0
0.0003658834226121117,0.0010405324878696141,1549.4473724018035,0
0.000368100988304468,0.001043756133614997,1551.8929567150299,0
0.0003703185539968248,0.0010469797793603805,1554.3385410282565,0
0.0003725439907507561,0.0010502092459387287,1556.7841253414826,0
0.00037479427851255445,0.0010534570904149549,1559.2297096547095,0
0.0003770445662743526,0.0010567049348911806,1561.6752939679357,0
0.000379294854036151,0.0010599527793674068,1564.1208782811623,0
0.0003815451417979494,0.001063200623843633,1566.566462594389,0
0.0003837954295597475,0.0010664484683198588,1569.012046907615,0
0.0003860457173215456,0.0010696963127960846,1571.4576312208414,0
0.0003883237454245737,0.0010729654865552604,1573.903215534068,0
0.0003906060485662224,0.0010762379473507277,1576.3487998472947,0
