pressure,epsilon,muB,phase_index
7.53732e-10,3.430778e-07,816.0,1
5.331153687106799e-09,2.2973581022828117e-06,818.4696324094189,1
9.908575374213597e-09,4.251638404565623e-06,820.9392648188376,1
2.3445776134920846e-08,7.761876580827343e-06,823.4088972282566,1
4.3728644846560667e-08,1.2443569441103016e-05,825.8785296376755,1
6.848195196044518e-08,1.7665130727492095e-05,828.3481620470942,1
1.204751683525335e-07,2.61762948729904e-05,830.817794456513,1
1.7246838474462182e-07,3.46874590184887e-05,833.2874268659318,1
2.5985667878057873e-07,4.527367502699058e-05,835.7570592753507,1
3.615994011281572e-07,5.67014256553651e-05,838.2266916847695,1
4.792069047134814e-07,6.81260312199134e-05,840.6963240941884,1
6.372167851848274e-07,7.954262734190459e-05,843.1659565036073,1
7.952266656561732e-07,9.095922346389577e-05,845.635588913026,1
9.983248080177833e-07,0.00010138486734849674,848.1052213224448,1
1.2092276701729953e-06,0.00011163897868299638,850.5748537318636,1
1.4401032137299301e-06,0.00012142566854279088,853.0444861412826,1
1.6982304279785884e-06,0.00013057458644564348,855.5141185507014,1
1.956357642227247e-06,0.0001397235043484961,857.9837509601202,1
2.2563579771355126e-06,0.00014800817706970572,860.4533833695391,1
2.5566356425319267e-06,0.0001562871257958004,862.9230157789578,1
2.8788444994908882e-06,0.00016418328195651712,865.3926481883768,1
3.218013524465428e-06,0.00017178341105434286,867.8622805977957,1
3.5619024630402263e-06,0.00017931081801228791,870.3319130072144,1
3.936190484087505e-06,0.00018636985064921004,872.8015454166332,1
4.310478505134782e-06,0.0001934288832861321,875.271177826052,1
4.70860866316707e-06,0.00020020761646163948,877.7408102354709,1
5.116720769693777e-06,0.00020686899712010542,880.2104426448898,1
5.5334013685213735e-06,0.00021345406202289327,882.6800750543086,1
5.972629196985123e-06,0.00021983830876448181,885.1497074637275,1
6.411857025448872e-06,0.00022622255550607036,887.6193398731463,1
6.8770361565789265e-06,0.00023235992054006447,890.088972282565,1
7.346944228464885e-06,0.0002384522978913999,892.5586046919839,1
7.828917634498737e-06,0.0002444319461818519,895.0282371014029,1
8.327804373076816e-06,0.0002502535695000347,897.4978695108216,1
8.826691111654897e-06,0.00025607519281821753,899.9675019202405,1
9.352988706227708e-06,0.00026165224970641903,902.4371343296593,1
9.879651812119922e-06,0.00026722604541231667,904.9067667390781,1
1.0421027707310175e-05,0.00027267296005670905,907.3763991484971,1
1.0974089537237468e-05,0.0002780190968149984,909.8460315579159,1
1.1530418489226676e-05,0.0002833382969147418,912.3156639673347,1
1.2109041014591456e-05,0.0002884736917074274,914.7852963767534,1
1.2687663539956235e-05,0.0002936090865001131,917.2549287861723,1
1.3283405209455958e-05,0.0002986073786777495,919.7245611955913,1
1.3886542952538234e-05,0.0003035464376938864,922.19419360501,1
1.4496013595798163e-05,0.00030843598635311374,924.6638260144289,1
1.5122711632066294e-05,0.0003131908519520481,927.1334584238477,1
1.574940966833443e-05,0.0003179457175509824,929.6030908332665,1
1.6395173303896527e-05,0.00032255449070669486,932.0727232426852,1
1.7044587842277298e-05,0.0003271352883813053,934.5423556521041,1
1.770298040141059e-05,0.000331648670784551,937.0119880615231,1
1.8374304695316918e-05,0.000336064949780154,939.4816204709418,1
1.904562898922325e-05,0.00034048122877575703,941.9512528803607,1
1.9737667991592458e-05,0.0003447440639920762,944.4208852897796,1
2.0430124106815383e-05,0.00034900380945346223,946.8905176991983,1
2.113370851684369e-05,0.0003531813565099511,949.3601501086173,1
2.184637034122968e-05,0.000357291853852728,951.8297825180362,1
2.2561422993811388e-05,0.00036138513982742485,954.2994149274549,1
2.3293804832986584e-05,0.00036535367446720025,956.7690473368737,1
2.402618667216178e-05,0.00036932220910697566,959.2386797462925,1
2.4771705431814444e-05,0.00037319718518435686,961.7083121557115,1
2.5523078744218068e-05,0.0003770304662891764,964.1779445651302,1
2.6279294853096363e-05,0.0003808299330829749,966.6475769745491,1
2.7049136899868427e-05,0.00038453425821548265,969.117209383968,1
2.7818978946640487e-05,0.0003882385833479904,971.5868417933867,1
2.860333627382735e-05,0.00039184159285143996,974.0564742028055,1
2.9390609809355896e-05,0.00039542424742724364,976.5261066122243,1
3.0184860156296143e-05,0.00039896016865163185,978.9957390216433,1
3.0989437582906675e-05,0.0004024269151463535,981.4653714310621,1
3.179401500951722e-05,0.00040589366164107515,983.9350038404809,1
3.261479968445208e-05,0.00040925412321355113,986.4046362498998,1
3.3436022433502094e-05,0.0004126117119557765,988.8742686593185,1
3.4281124064708525e-05,0.0004159133720151915,991.3439010687375,1
3.51462280656199e-05,0.00041916818288864486,993.8135334781564,1
3.600672731725616e-05,0.00042242436711665296,996.2831658875751,1
3.683167097913637e-05,0.000425691155707292,998.7527982969939,1
3.765661464101658e-05,0.00042895794429793097,1001.2224307064128,1
3.851105378311099e-05,0.0004320147478558956,1003.6920631158317,1
3.9379047253941384e-05,0.00043497505506452574,1006.1616955252505,1
4.0251003359775055e-05,0.00043794167555250257,1008.6313279346693,1
4.113449789002858e-05,0.000440926679085227,1011.1009603440882,1
4.2017992420282097e-05,0.0004439116826179513,1013.570592753507,1
4.291204511575381e-05,0.00044683252106930184,1016.0402251629259,1
4.380831999372601e-05,0.0004497398546627498,1018.5098575723446,1
4.471043589695624e-05,0.000452618832021226,1020.9794899817635,1
4.5621438016196666e-05,0.0004554546697564215,1023.4491223911823,1
4.65324401354371e-05,0.000458290507491617,1025.9187548006012,1
4.745668188111173e-05,0.0004610624160624909,1028.38838721002,1
4.838137399600836e-05,0.00046383214997019426,1030.858019619439,1
4.931318675128651e-05,0.00046656940065825837,1033.3276520288578,1
5.025112432800566e-05,0.0004692787108930113,1035.7972844382766,1
5.1190490354721396e-05,0.00047198203329314756,1038.2669168476955,1
5.2141644580884966e-05,0.0004746359414408492,1040.7365492571141,1
5.309279880704852e-05,0.0004772898495885508,1043.206181666533,1
5.405815835052929e-05,0.0004799094594081647,1045.675814075952,1
5.503024682741669e-05,0.00048251282241255363,1048.1454464853707,1
5.6001323499522154e-05,0.000485104785954759,1050.6150788947896,1
5.696934943109607e-05,0.0004876623784384933,1053.0847113042084,1
5.7937375362669974e-05,0.0004902199709222276,1055.554343713627,1
5.892229137499077e-05,0.0004927430208801286,1058.0239761230462,1
5.9910926389021206e-05,0.000495258464970742,1060.4936085324648,1
6.090437921316276e-05,0.0004977592035829763,1062.9632409418837,1
6.190536650529437e-05,0.000500236944618806,1065.4328733513025,1
6.290635379742599e-05,0.0005027146856546357,1067.9025057607214,1
6.39185692102296e-05,0.0005051596121124453,1070.3721381701403,1
6.49312460957658e-05,0.0005076031898999448,1072.8417705795591,1
6.59502417580373e-05,0.000510030331436649,1075.311402988978,1
6.697481815573289e-05,0.0005124429564979504,1077.7810353983969,1
6.800058313661719e-05,0.000514852757368617,1080.2506678078157,1
6.903686970798743e-05,0.0005172375579047723,1082.7203002172344,1
7.007315627935766e-05,0.0005196223584409277,1085.1899326266532,1
7.111722067886371e-05,0.0005219904250296361,1087.6595650360723,1
7.216508159412608e-05,0.0005243503234389963,1090.129197445491,1
7.321569812477081e-05,0.000526704772496677,1092.5988298549098,1
7.427492346517054e-05,0.0005290421972511116,1095.0684622643287,1
7.533414880557026e-05,0.0005313796220055461,1097.5380946737473,1
7.640263311403527e-05,0.0005337060711852596,1100.0077270831664,1
7.747324757589636e-05,0.0005360299952825226,1102.477359492585,1
7.85481313929158e-05,0.0005383419872818205,1104.946991902004,1
7.962987978088942e-05,0.000540634794010725,1107.4166243114228,1
8.071162816886304e-05,0.0005429276007396294,1109.8862567208416,1
8.180408014645183e-05,0.0005452114943546577,1112.3558891302605,1
8.289704889767225e-05,0.0005474949576409464,1114.8255215396794,1
8.399582425576454e-05,0.000549770822690734,1117.2951539490982,1
8.509986519228718e-05,0.0005520397974668875,1119.764786358517,1
8.620494772953536e-05,0.0005543076235910783,1122.234418767936,1
8.731996206606384e-05,0.0005565644971684255,1124.7040511773546,1
8.843497640259234e-05,0.0005588213707457729,1127.1736835867734,1
8.955739113882377e-05,0.000561070192074739,1129.6433159961925,1
9.068352705330268e-05,0.0005633149644532803,1132.1129484056112,1
9.181217292012635e-05,0.0005655577851860911,1134.58258081503,1
9.294894883423585e-05,0.0005677942842960608,1137.052213224449,1
9.408572474834535e-05,0.0005700307834060305,1139.5218456338675,1
9.523130631453631e-05,0.0005722598144733379,1141.9914780432866,1
9.637900211994946e-05,0.0005744870524617724,1144.4611104527055,1
9.753078543776543e-05,0.00057671134309781,1146.9307428621241,1
9.868932704550991e-05,0.0005789307605836145,1149.400375271543,1
9.984786865325441e-05,0.0005811501780694191,1151.8700076809619,1
0.00010101665008579448,0.0005833640974010113,1154.3396400903807,1
0.00010218600045138422,0.0005855777112506536,1156.8092724997996,1
0.00010336096734103368,0.0005877883196737595,1159.2789049092185,1
0.00010454116350895476,0.0005899961298872397,1161.7485373186373,1
0.00010572229053438223,0.0005922035255782367,1164.2181697280562,1
0.0001069130238005835,0.000594406643490139,1166.6878021374748,1
0.00010810375706678478,0.0005966097614020414,1169.1574345468937,1
0.00010930159519202872,0.0005988103031245964,1171.6270669563128,1
0.00011050311251975112,0.0006010095107851839,1174.0966993657314,1
0.00011170709339069542,0.0006032079727756008,1176.5663317751503,1
0.0001129193536193988,0.0006054039287535157,1179.0359641845691,1
0.00011413161384810217,0.0006075998847314308,1181.5055965939878,1
0.00011535243340248708,0.0006097938325598592,1183.9752290034069,1
0.00011657539537163128,0.0006119872777448247,1186.4448614128257,1
0.00011780224393952001,0.000614179960851605,1188.9144938222444,1
0.00011903570184640424,0.0006163713480095626,1191.3841262316632,1
0.00012026915975328845,0.0006185627351675202,1193.853758641082,1
0.00012151276313442653,0.0006207527670140316,1196.323391050501,1
0.00012275700510283187,0.0006229427135530837,1198.7930234599198,1
0.00012400665544721098,0.0006251321550297884,1201.2626558693387,1
0.00012526147567443668,0.0006273211137158767,1203.7322882787576,1
0.00012651717425665596,0.0006295100353831723,1206.2019206881764,1
0.0001277827373848627,0.000631698541303319,1208.6715530975953,1
0.00012904830051306928,0.0006338870472234655,1211.141185507014,1
0.0001303207901583167,0.0006360754457557512,1213.610817916433,1
0.00013159697270588388,0.0006382637870337373,1216.0804503258516,1
0.0001328755297772583,0.0006404521649839056,1218.5500827352705,1
0.00013416237290472612,0.0006426406709040521,1221.0197151446894,1
0.00013544921603219395,0.0006448291768241988,1223.489347554108,1
0.00013674448277350504,0.0006470181724893365,1225.958979963527,1
0.00013804194532033326,0.0006492072958175853,1228.4286123729457,1
0.0001393432852904722,0.0006513967485022547,1230.8982447823646,1
0.0001406514084172012,0.0006535867773623872,1233.3678771917835,1
0.0001419595315439302,0.0006557768062225196,1235.8375096012023,1
0.00014327753692893808,0.0006579679886536575,1238.3071420106212,1
0.00014459623831448732,0.0006601592523299944,1240.77677442004,1
0.00014592036156974491,0.000662351201530088,1243.246406829459,1
0.0001472498058562752,0.0006645438235042503,1245.7160392388778,1
0.00014858005162542064,0.0006667365692595115,1248.1856716482966,1
0.00014992015649185168,0.0006689308376552803,1250.6553040577155,1
0.00015126026135828255,0.0006711251060510488,1253.1249364671341,1
0.00015260727602317865,0.0006733208095588064,1255.5945688765532,1
0.00015395808263005042,0.0006755173006237435,1258.0642012859719,1
0.00015531118472181238,0.0006777142098584087,1260.5338336953907,1
0.00015667261074804467,0.000679912635468733,1263.0034661048096,1
0.00015803403677427694,0.0006821110610790576,1265.4730985142282,1
0.0001594039460588759,0.000684311299904911,1267.9427309236473,1
0.00016077615614662922,0.000686512030505484,1270.412363333066,1
0.00016215217351600448,0.0006887136431017999,1272.8819957424848,1
0.00016353504418365852,0.0006909168433347826,1275.3516281519037,1
0.0001649179148513126,0.0006931200435677653,1277.8212605613226,1
0.00016631075090338946,0.0006953257637830159,1280.2908929707414,1
0.00016770436447202438,0.0006975316806116488,1282.7605253801603,1
0.00016910433385590568,0.0006997389711164802,1285.2301577895792,1
0.00017051070719198937,0.0007019476457013038,1287.699790198998,1
0.00017191754361653606,0.0007041565264169676,1290.1694226084169,1
0.00017333066728120563,0.0007063682057212228,1292.6390550178357,1
0.00017474379094587498,0.0007085798850254778,1295.1086874272544,1
0.00017616504295770333,0.0007107934320082063,1297.5783198366735,1
0.0001775908852292813,0.0007130080337108124,1300.047952246092,1
0.00017901900487334352,0.0007152233255262924,1302.517584655511,1
0.00018045571352752292,0.0007174412200721112,1304.9872170649298,1
0.00018189242218170232,0.0007196591146179299,1307.4568494743485,1
0.00018333767157223315,0.0007218794172661036,1309.9264818837676,1
0.0001847853289300942,0.0007241003988524339,1312.3961142931862,1
0.0001862366224241064,0.0007263226502005949,1314.865746702605,1
0.0001876946522380871,0.0007285472539144594,1317.335379112024,1
0.00018915268205206779,0.0007307718576283237,1319.8050115214428,1
0.00019062090985300532,0.0007329996079329591,1322.2746439308617,1
0.00019209001185228815,0.0007352276279716562,1324.7442763402805,1
0.00019356447528188234,0.0007374573474826033,1327.2139087496994,1
0.00019504448482430688,0.0007396888250066739,1329.6835411591182,1
0.00019652516067175454,0.0007419205322910971,1332.153173568537,1
0.00019801591311516015,0.000744155714263782,1334.622805977956,1
0.00019950666555856557,0.0007463908962364665,1337.0924383873746,1
0.00020100431714799034,0.0007486283952808333,1339.5620707967937,1
0.00020250597713453744,0.0007508672405415919,1342.0317032062123,1
0.00020400992655372925,0.0007531068712281482,1344.5013356156312,1
0.0002055228645282794,0.0007553495855796816,1346.97096802505,1
0.00020703580250282951,0.0007575922999312151,1349.4406004344687,1
0.00020855657243203966,0.0007598378796320144,1351.9102328438878,1
0.00021007963589946831,0.0007620842984321618,1354.3798652533064,1
0.0002116066636893232,0.0007643320481119811,1356.8494976627253,1
0.00021314125210799588,0.0007665823360029033,1359.3191300721442,1
0.00021467584052666858,0.0007688326238938256,1361.788762481563,1
0.00021622025296311716,0.0007710865252165735,1364.258394890982,1
0.00021776558428277068,0.0007733407645193507,1366.7280273004008,1
0.00021931628511012344,0.000775596940038659,1369.1976597098196,1
0.00022087268861507937,0.0007778551719138315,1371.6672921192385,1
0.00022242970371626328,0.0007801136319965519,1374.1369245286573,1
0.00022399713824598134,0.0007823759799257402,1376.6065569380762,1
0.0002255645727756992,0.0007846383278549284,1379.0761893474948,1
0.00022713883468484364,0.000786903123335232,1381.545821756914,1
0.00022871717675770317,0.0007891693815157352,1384.0154541663326,1
0.00023029779873746877,0.0007914356558657909,1386.4850865757514,1
0.0002318877480826526,0.0007937019963673743,1388.9547189851703,1
0.00023347769742783643,0.0007959683368689578,1391.424351394589,1
0.00023511037836262356,0.0008420054774617295,1393.893983804008,0
0.00023702306956278503,0.0008450710663626442,1396.363616213427,0
0.00023893576076294652,0.0008481366552635588,1398.8332486228455,0
0.000240848451963108,0.0008512022441644734,1401.3028810322644,0
0.00024276806944969857,0.0008542706258426637,1403.7725134416833,0
0.00024471331518891736,0.0008573493411971013,1406.2421458511021,0
0.0002466585609281359,0.0008604280565515384,1408.711778260521,0
0.00024860380666735473,0.000863506771905976,1411.1814106699399,0
0.00025054905240657336,0.0008665854872604133,1413.6510430793587,0
0.00025249429814579204,0.0008696642026148507,1416.1206754887776,0
0.00025444435818286297,0.000872745158731859,1418.5903078981964,0
0.000256422343626983,0.0008758391124258362,1421.059940307615,0
0.00025840032907110337,0.0008789330661198141,1423.5295727170342,0
0.00026037831451522356,0.0008820270198137916,1425.9992051264528,0
0.00026235629995934376,0.0008851209735077692,1428.4688375358717,0
0.0002643342854034641,0.000888214927201747,1430.9384699452908,0
0.00026631380054709694,0.0008913096501829331,1433.4081023547092,0
0.0002683242958850092,0.0008944199531306313,1435.8777347641283,0
0.00027033479122292144,0.0008975302560783294,1438.3473671735471,0
0.0002723452865608336,0.0009006405590260275,1440.8169995829658,0
0.00027435578189874583,0.0009037508619737256,1443.2866319923846,0
0.000276366277236658,0.0009068611649214238,1445.7562644018035,0
0.00027837677257457034,0.000909971467869122,1448.2258968112224,0
0.00028041713486579484,0.0009130984460202525,1450.6955292206412,0
0.00028246029184005375,0.0009162269844881535,1453.16516163006,0
0.0002845034488143125,0.0009193555229560541,1455.634794039479,0
0.00028654660578857126,0.0009224840614239547,1458.1044264488978,0
0.0002885897627628302,0.0009256125998918556,1460.5740588583167,0
0.0002906329197370888,0.0009287411383597561,1463.0436912677353,0
0.00029270077909310016,0.0009318837989994912,1465.5133236771544,0
0.0002947767290030106,0.0009350310849499977,1467.982956086573,0
0.00029685267891292106,0.0009381783709005041,1470.452588495992,0
0.0002989286288228316,0.0009413256568510108,1472.922220905411,0
0.0003010045787327419,0.000944472942801517,1475.3918533148294,0
0.0003030805286426525,0.0009476202287520237,1477.8614857242485,0
0.0003051751004260402,0.0009507787374273813,1480.3311181336674,0
0.0003072840131459227,0.000953945888862802,1482.800750543086,0
0.00030939292586580527,0.000957113040298223,1485.2703829525049,0
0.00031150183858568776,0.0009602801917336438,1487.7400153619237,0
0.00031361075130557046,0.0009634473431690649,1490.2096477713426,0
0.00031571966402545285,0.0009666144946044854,1492.6792801807615,0
0.00031783991517725927,0.0009697888528316365,1495.1489125901803,0
0.0003199810506604312,0.0009729764852952592,1497.6185449995992,0
0.0003221221861436031,0.0009761641177588818,1500.088177409018,0
0.0003242633216267752,0.0009793517502225048,1502.557809818437,0
0.000326404457109947,0.000982539382686127,1505.0274422278555,0
0.00032854559259311907,0.00098572701514975,1507.4970746372746,0
0.0003306904676110586,0.000988917123054121,1509.9667070466933,0
0.0003328644008400006,0.0009921264664741502,1512.4363394561121,0
0.00033503833406894277,0.00099533580989418,1514.9059718655312,0
0.00033721226729788455,0.0009985451533142092,1517.3756042749496,0
0.0003393862005268267,0.001001754496734239,1519.8452366843687,0
0.0003415601337557687,0.0010049638401542682,1522.3148690937876,0
0.00034373406698471064,0.0010081731835742977,1524.7845015032062,0
0.0003459360869478474,0.0010114023266913148,1527.254133912625,0
0.0003481428756856889,0.001014634831548202,1529.723766322044,0
0.0003503496644235306,0.0010178673364050893,1532.1933987314628,0
0.00035255645316137194,0.001021099841261976,1534.6630311408817,0
0.00035476324189921357,0.0010243323461188634,1537.1326635503005,0
0.0003569700306370549,0.00102756485097575,1539.6022959597192,0
0.00035919564187837085,0.0010308105499885003,1542.0719283691383,0
0.0003614350134977586,0.0010340658947199115,1544.5415607785571,0
0.00036367438511714616,0.0010373212394513224,1547.0111931879758,0
0.00036591375673653394,0.0010405765841827337,1549.4808255973949,0
0.0003681531283559218,0.001043831928914145,1551.9504580068137,0
0.0003703924999753093,0.001047087273645556,1554.4200904162324,0
0.00037264115555714453,0.0010503494840829648,1556.8897228256515,0
0.0003749135710109888,0.0010536292654979252,1559.3593552350699,0
0.0003771859864648335,0.0010569090469128863,1561.828987644489,0
0.0003794584019186779,0.0010601888283278467,1564.2986200539076,0
0.0003817308173725226,0.0010634686097428078,1566.7682524633265,0
0.00038400323282636724,0.0010667483911577687,1569.2378848727456,0
0.0003862756482802116,0.001070028172572729,1571.7075172821642,0
