pressure,epsilon,muB,phase_index
3.919585e-08,1.032936e-05,918.0,1
6.720260256723058e-08,1.4381924288526541e-05,920.2652235917835,1
9.520935513446115e-08,1.843448857705308e-05,922.5304471835672,1
1.3151155239603535e-07,2.3011295143217002e-05,924.7956707753508,1
1.831349031947138e-07,2.855634352428934e-05,927.0608943671343,1
2.347582539933922e-07,3.410139190536167e-05,929.3261179589178,1
3.110105327486858e-07,4.0565928043372994e-05,931.5913415507015,1
3.9769237154012695e-07,4.741983771726798e-05,933.8565651424849,1
4.857762970454037e-07,5.432168404591521e-05,936.1217887342684,1
5.985364091760802e-07,6.20671970516547e-05,938.3870123260521,1
7.112965213067566e-07,6.981271005739416e-05,940.6522359178357,1
8.417522254751649e-07,7.771844513369518e-05,942.9174595096192,1
9.982030641547266e-07,8.585954923675844e-05,945.1826831014027,1
1.154653902834288e-06,9.400065333982169e-05,947.4479066931864,1
1.3411340880704024e-06,0.00010215016320214988,949.71313028497,1
1.5372918800754322e-06,0.00011030238200230346,951.9783538767535,1
1.7376668505819795e-06,0.00011843179180234082,954.2435774685371,1
1.9730435912433545e-06,0.00012637189128998717,956.5088010603207,1
2.2084203319047295e-06,0.0001343119907776335,958.7740246521043,1
2.461221281831148e-06,0.00014211023287998857,961.0392482438876,1
2.7345771387696314e-06,0.00014974112934735645,963.3044718356713,1
3.0079329957081153e-06,0.00015737202581472432,965.5696954274549,1
3.310576912572173e-06,0.00016474630885725172,967.8349190192384,1
3.620089135870911e-06,0.00017206041380530863,970.100142611022,1
3.9352261109674735e-06,0.00017931455607004849,972.3653662028056,1
4.279611073924454e-06,0.00018625690007296718,974.6305897945892,1
4.623996036881433e-06,0.00019319924407588593,976.8958133863728,1
5.082101057060898e-06,0.00021623894184372435,979.1610369781563,0
5.6069350097163035e-06,0.00022416728037488758,981.4262605699399,0
6.14591253511542e-06,0.00023185489527878682,983.6914841617236,0
6.699932974223472e-06,0.00023928647977097516,985.9567077535071,0
7.276763316929822e-06,0.00024637680416181757,988.2219313452905,0
7.862003683759702e-06,0.0002533413057637861,990.4871549370741,0
8.472007732361243e-06,0.0002599415907810009,992.7523785288577,0
9.086330352560536e-06,0.0002664783595806818,995.0176021206412,0
9.72674603934464e-06,0.00027269575979526825,997.2828257124248,0
1.03721231097302e-05,0.00027885243468055095,999.5480493042085,0
1.1037857530819248e-05,0.00028476901318023526,1001.813272895992,0
1.171252424379957e-05,0.0002905802434433322,1004.0784964877755,0
1.2399534712998322e-05,0.0002962589369638549,1006.3437200795591,0
1.3104260594625862e-05,0.00030174741747181276,1008.6089436713428,0
1.3808986476253403e-05,0.00030723589797977067,1010.8741672631263,0
1.454383520272507e-05,0.00031243904656190296,1013.1393908549098,0
1.5279328039213093e-05,0.00031763609395563943,1015.4046144466935,0
1.6026148222888453e-05,0.00032272969973428967,1017.6698380384769,0
1.6790170467394795e-05,0.0003276662158673491,1019.9350616302604,0
1.7554192711901133e-05,0.00033260273200040857,1022.200285222044,0
1.8338844039461593e-05,0.000337385494170001,1024.4655088138277,0
1.913403591483459e-05,0.00034208969487377154,1026.7307324056112,0
1.992922779020759e-05,0.00034679389557754206,1028.9959559973947,0
2.074699871564793e-05,0.0003513291123189321,1031.2611795891785,0
2.1571350117637198e-05,0.0003558150800884533,1033.526403180962,0
2.2395701519626462e-05,0.0003603010478579746,1035.7916267727455,0
2.3242357898953667e-05,0.00036464892087868946,1038.056850364529,0
2.409743426848073e-05,0.0003689446639907304,1040.3220739563126,0
2.4952510638007726e-05,0.000373240407102771,1042.587297548096,0
2.582309151877947e-05,0.00037744445039215174,1044.8525211398796,0
2.6707907519480863e-05,0.0003815643015420645,1047.1177447316632,0
2.7592723520182263e-05,0.0003856841526919773,1049.382968323447,0
2.8482159284008793e-05,0.0003897790999329222,1051.6481919152304,0
2.9396630352475703e-05,0.00039373908853402776,1053.913415507014,0
3.0311101420942613e-05,0.00039769907713513335,1056.1786390987977,0
3.122557248940952e-05,0.000401659065736239,1058.4438626905812,0
3.215907110329492e-05,0.0004055272183903194,1060.7090862823648,0
3.3103841036408903e-05,0.00040934097031888227,1062.9743098741483,0
3.40486109695229e-05,0.00041315472224744517,1065.2395334659318,0
3.4993380902636894e-05,0.00041696847417600807,1067.5047570577156,0
3.5966418504431957e-05,0.00042066196822297745,1069.769980649499,0
3.6941361430995285e-05,0.00042434735653179833,1072.0352042412824,0
3.791630435755868e-05,0.00042803274484061964,1074.3004278330661,0
3.889379424337651e-05,0.0004317079564332226,1076.5656514248496,0
3.9898131343002565e-05,0.0004352758963937015,1078.8308750166332,0
4.090246844262862e-05,0.00043884383635418037,1081.096098608417,0
4.190680554225469e-05,0.0004424117763146593,1083.3613222002004,0
4.291346901098999e-05,0.00044597155434875085,1085.626545791984,0
4.394839898715278e-05,0.00044943216103813556,1087.8917693837675,0
4.4983328963315565e-05,0.0004528927677275203,1090.156992975551,0
4.6018258939478365e-05,0.00045635337441690503,1092.4222165673348,0
4.705318891564115e-05,0.00045981398110628963,1094.6874401591183,0
4.8114610927923465e-05,0.000463187493895498,1096.9526637509016,0
4.91787705786087e-05,0.0004665520065608699,1099.2178873426856,0
5.024293022929377e-05,0.00046991651922624134,1101.4831109344689,0
5.130708987997893e-05,0.00047328103189161303,1103.7483345262524,0
5.2389133067284956e-05,0.00047659593176662015,1106.0135581180361,0
5.348419564992753e-05,0.0004798747130290062,1108.2787817098197,0
5.4579258232570114e-05,0.0004831534942913922,1110.5440053016032,0
5.567432081521268e-05,0.0004864322755537783,1112.8092288933867,0
5.677230615184326e-05,0.0004897035544699774,1115.0744524851702,0
5.789693180560627e-05,0.000492906451003508,1117.339676076954,0
5.9021557459369264e-05,0.0004961093475370384,1119.6048996687375,0
6.014618311313218e-05,0.0004993122440705688,1121.8701232605208,0
6.127080876689527e-05,0.0005025151406040996,1124.1353468523048,0
6.2409259552581e-05,0.0005056852429963484,1126.400570444088,0
6.356332040807078e-05,0.000508818317254803,1128.6657940358716,0
6.471738126356054e-05,0.0005119513915132578,1130.9310176276554,0
6.587144211905031e-05,0.0005150844657717124,1133.196241219439,0
6.702550297454007e-05,0.0005182175400301671,1135.4614648112224,0
6.82009081464709e-05,0.0005213096977778227,1137.726688403006,0
6.938583721066711e-05,0.0005243835984666587,1139.9919119947895,0
7.057076627486332e-05,0.0005274574991554948,1142.2571355865732,0
7.175569533905952e-05,0.0005305313998443308,1144.5223591783567,0
7.294062440325573e-05,0.000533605300533167,1146.7875827701403,0
7.414848642539689e-05,0.0005366371987315595,1149.052806361924,0
7.536299115524539e-05,0.0005396569305854414,1151.3180299537073,0
7.657749588509409e-05,0.0005426766624393237,1153.583253545491,0
7.779200061494259e-05,0.0005456963942932058,1155.8484771372746,0
7.90065053447912e-05,0.0005487161261470879,1158.113700729058,0
8.024254401618215e-05,0.0005517024582677141,1160.3789243208416,0
8.148691783044932e-05,0.0005546758623533975,1162.6441479126252,0
8.273129164471648e-05,0.0005576492664390809,1164.9093715044087,0
8.397566545898365e-05,0.0005606226705247644,1167.1745950961924,0
8.522003927325082e-05,0.0005635960746104478,1169.439818687976,0
8.648055073847873e-05,0.0005665470293066847,1171.7050422797595,0
8.775503713436782e-05,0.0005694785432143172,1173.9702658715432,0
8.902952353025691e-05,0.0005724100571219497,1176.2354894633268,0
9.030400992614601e-05,0.0005753415710295822,1178.5007130551103,0
9.1578496322035e-05,0.0005782730849372144,1180.7659366468938,0
9.285964339744967e-05,0.0005811969299189032,1183.0311602386773,0
9.416395400154817e-05,0.0005840941050412479,1185.2963838304609,0
9.546826460564676e-05,0.0005869912801635929,1187.5616074222444,0
9.677257520974534e-05,0.0005898884552859379,1189.826831014028,0
9.807688581384393e-05,0.0005927856304082828,1192.0920546058117,0
9.938119641794254e-05,0.0005956828055306278,1194.3572781975952,0
0.00010070963178705141,0.0005985564160967661,1196.6225017893787,0
0.00010204440669765479,0.0006014238343339095,1198.8877253811625,0
0.00010337918160825819,0.0006042912525710528,1201.152948972946,0
0.00010471395651886158,0.0006071586708081961,1203.4181725647295,0
0.00010604873142946489,0.0006100260890453392,1205.683396156513,0
0.0001073908443270133,0.0006128872189852887,1207.9486197482966,0
0.00010875525425419872,0.000615729241457487,1210.21384334008,0
0.00011011966418138424,0.0006185712639296857,1212.4790669318636,0
0.00011148407410856976,0.0006214132864018843,1214.7442905236471,0
0.00011284848403575529,0.000624255308874083,1217.0095141154309,0
0.0001142128939629408,0.0006270973313462816,1219.2747377072144,0
0.00011559498474444409,0.0006299266077134586,1221.539961298998,0
0.00011698915878929291,0.0006327471732717097,1223.8051848907817,0
0.00011838333283414173,0.0006355677388299608,1226.0704084825652,0
0.00011977750687899055,0.000638388304388212,1228.3356320743487,0
0.00012117168092383935,0.0006412088699464633,1230.6008556661322,0
0.00012256585496868818,0.0006440294355047144,1232.8660792579158,0
0.0001239853402247393,0.0006468367234916336,1235.1313028496993,0
0.00012540978046357803,0.0006496414122296717,1237.396526441483,0
0.0001268342207024166,0.0006524461009677094,1239.6617500332663,0
0.00012825866094125522,0.0006552507897057474,1241.92697362505,0
0.00012968310118009386,0.0006580554784437853,1244.1921972168336,0
0.0001311075414189325,0.0006608601671818233,1246.4574208086171,0
0.00013256136434443869,0.0006636524364298802,1248.722644400401,0
0.00013401564944111793,0.0006664445103271744,1250.9878679921844,0
0.00013546993453779718,0.0006692365842244685,1253.253091583968,0
0.0001369242196344764,0.0006720286581217627,1255.5183151757515,0
0.00013837850473115564,0.0006748207320190568,1257.783538767535,0
0.0001398340834732379,0.0006776123905244569,1260.0487623593185,0
0.00014131866868985273,0.0006803947349980824,1262.3139859511023,0
0.00014280325390646735,0.0006831770794717076,1264.5792095428856,0
0.00014428783912308208,0.0006859594239453328,1266.8444331346693,0
0.0001457724243396968,0.0006887417684189581,1269.1096567264528,0
0.0001472570095563115,0.0006915241128925833,1271.3748803182364,0
0.00014874207173073712,0.0006943063486601782,1273.6401039100201,0
0.00015025604442143802,0.0006970819952758729,1275.9053275018036,0
0.00015177001711213893,0.0006998576418915675,1278.1705510935872,0
0.00015328398980283983,0.0007026332885072622,1280.4357746853707,0
0.00015479796249354074,0.000705408935122957,1282.7009982771542,0
0.00015631193518424164,0.0007081845817386517,1284.966221868938,0
0.00015782590787494254,0.0007109602283543463,1287.2314454607215,0
0.00015936772535583144,0.0007137331136887446,1289.4966690525048,0
0.0001609123508841979,0.0007165057205578029,1291.7618926442888,0
0.00016245697641256411,0.0007192783274268608,1294.027116236072,0
0.00016400160194093047,0.0007220509342959187,1296.2923398278556,0
0.00016554622746929677,0.0007248235411649767,1298.5575634196393,0
0.00016709085299766312,0.0007275961480340349,1300.8227870114229,0
0.00016865712379052428,0.000730367782859683,1303.0880106032064,0
0.0001702314450874251,0.0007331390561540872,1305.35323419499,0
0.00017180576638432593,0.0007359103294484916,1307.6184577867734,0
0.00017338008768122675,0.0007386816027428959,1309.8836813785572,0
0.00017495440897812757,0.0007414528760373002,1312.1489049703407,0
0.0001765287302750283,0.0007442241493317043,1314.414128562124,0
0.0001781174261933593,0.0007469966267620463,1316.679352153908,0
0.00017972178694792545,0.0007497704164072774,1318.9445757456913,0
0.0001813261477024919,0.0007525442060525089,1321.209799337475,0
0.0001829305084570581,0.0007553179956977398,1323.4750229292586,0
0.0001845348692116244,0.000758091785342971,1325.740246521042,0
0.00018613922996619072,0.000760865574988202,1328.0054701128256,0
0.00018774855841570463,0.0007636398631500358,1330.2706937046091,0
0.00018938283753526487,0.0007664166551538708,1332.5359172963927,0
0.00019101711665482507,0.0007691934471577059,1334.8011408881764,0
0.0001926513957743853,0.0007719702391615408,1337.06636447996,0
0.0001942856748939454,0.0007747470311653757,1339.3315880717432,0
0.00019591995401350575,0.000777523823169211,1341.5968116635272,0
0.00019755423313306584,0.0007803006151730459,1343.8620352553105,0
0.00019921207224307637,0.0007830827665044533,1346.1272588470943,0
0.00020087611116771762,0.0007858663281436262,1348.3924824388778,0
0.0002025401500923591,0.0007886498897827996,1350.6577060306613,0
0.0002042041890170004,0.0007914334514219724,1352.9229296224448,0
0.0002058682279416418,0.0007942170130611454,1355.1881532142284,0
0.00020753226686628313,0.0007970005747003185,1357.4533768060119,0
0.00020920736700952115,0.0007997868592519954,1359.7186003977956,0
0.0002109018443698035,0.0008025779138447049,1361.9838239895792,0
0.0002125963217300858,0.0008053689684374145,1364.2490475813627,0
0.00021429079909036816,0.0008081600230301241,1366.5142711731464,0
0.00021598527645065035,0.0008109510776228335,1368.7794947649297,0
0.0002176797538109328,0.0008137421322155432,1371.0447183567135,0
0.000219374231171215,0.0008165331868082526,1373.309941948497,0
0.00022109473177997556,0.0008193322633771567,1375.5751655402805,0
0.0002228186454248049,0.0008221323920550664,1377.840389132064,0
0.00022454255906963444,0.0008249325207329767,1380.1056127238478,0
0.00022626647271446377,0.0008277326494108866,1382.370836315631,0
0.0002279903863592932,0.0008305327780887967,1384.6360599074148,0
0.00022971430000412265,0.0008333329067667069,1386.9012834991984,0
0.00023144902249707544,0.0008361371951677684,1389.166507090982,0
0.00023320340230432063,0.0008389490485733915,1391.4317306827656,0
0.00023495778211156583,0.0008417609019790148,1393.6969542745492,0
0.00023671216191881097,0.000844572755384638,1395.9621778663327,0
0.00023846654172605605,0.000847384608790261,1398.2274014581162,0
0.00024022092153330136,0.0008501964621958843,1400.4926250498997,0
0.00024197530134054641,0.0008530083156015073,1402.7578486416833,0
0.00024375309222154185,0.0008558296086852955,1405.023072233467,0
0.00024553733206366936,0.0008586535020820049,1407.2882958252503,0
0.0002473215719057969,0.0008614773954787145,1409.553519417034,0
0.00024910581174792453,0.0008643012888754241,1411.8187430088176,0
0.00025089005159005214,0.0008671251822721336,1414.0839666006011,0
0.00025267429143217975,0.0008699490756688434,1416.3491901923849,0
0.000254463665141821,0.0008727753585683467,1418.6144137841684,0
0.0002562779348586976,0.0008756132290436266,1420.879637375952,0
0.00025809220457557406,0.0008784510995189062,1423.1448609677354,0
0.00025990647429245087,0.0008812889699941864,1425.410084559519,0
0.00026172074400932735,0.0008841268404694661,1427.6753081513025,0
0.0002635350137262041,0.0008869647109447461,1429.9405317430862,0
0.0002653492834430806,0.0008898025814200258,1432.2057553348695,0
0.00026717907441721613,0.0008926482575490127,1434.4709789266535,0
0.0002690231632189504,0.0008955011240678715,1436.7362025184368,0
0.00027086725202068486,0.0008983539905867303,1439.0014261102203,0
0.00027271134082241925,0.0009012068571055892,1441.266649702004,0
0.00027455542962415364,0.0009040597236244481,1443.5318732937876,0
0.0002763995184258881,0.000906912590143307,1445.7970968855711,0
0.00027824360722762247,0.0009097654566621658,1448.0623204773547,0
0.0002801126962676257,0.0009126322812186803,1450.3275440691382,0
0.0002819867433372043,0.0009155018739233526,1452.5927676609217,0
0.00028386079040678325,0.0009183714666280255,1454.8579912527055,0
0.0002857348374763619,0.0009212410593326978,1457.1232148444888,0
0.0002876088845459408,0.0009241106520373705,1459.3884384362727,0
0.00028948293161551946,0.0009269802447420428,1461.653662028056,0
0.0002913605093716564,0.00092985185591452,1463.9188856198396,0
0.00029326463514088244,0.0009327386443928321,1466.1841092116233,0
0.00029516876091010847,0.0009356254328711442,1468.4493328034068,0
0.0002970728866793345,0.0009385122213494562,1470.7145563951904,0
0.00029897701244856054,0.0009413990098277683,1472.9797799869739,0
0.0003008811382177866,0.0009442857983060802,1475.2450035787574,0
0.0003027852639870125,0.000947172586784392,1477.510227170541,0
0.00030470059499641475,0.0009500661282528125,1479.7754507623247,0
0.00030663495527929357,0.0009529711379712241,1482.040674354108,0
0.00030856931556217266,0.0009558761476896362,1484.305897945892,0
0.0003105036758450515,0.0009587811574080478,1486.5711215376753,0
0.00031243803612793057,0.0009616861671264599,1488.836345129459,0
0.0003143723964108094,0.0009645911768448715,1491.1015687212425,0
0.0003163067566936883,0.0009674961865632835,1493.366792313026,0
0.0003182587587448467,0.0009704124095209328,1495.6320159048096,0
0.0003202226747475637,0.0009733362050748762,1497.897239496593,0
0.00032218659075028064,0.0009762600006288198,1500.1624630883766,0
0.0003241505067529976,0.0009791837961827632,1502.4276866801604,0
0.0003261144227557145,0.0009821075917367066,1504.692910271944,0
0.00032807833875843134,0.0009850313872906498,1506.9581338637272,0
0.00033004225476114844,0.0009879551828445934,1509.2233574555112,0
0.0003320301214184641,0.0009908948328911458,1511.4885810472945,0
0.0003340241205328184,0.0009938385424089916,1513.7538046390782,0
0.00033601811964717253,0.000996782251926837,1516.0190282308617,0
0.00033801211876152693,0.0009997259614446827,1518.2842518226453,0
0.00034000611787588105,0.001002669670962528,1520.5494754144288,0
0.0003420001169902353,0.0010056133804803738,1522.8146990062123,0
0.0003439941161045895,0.0010085570899982194,1525.0799225979958,0
0.0003460174127627597,0.0010115214527712999,1527.3451461897796,0
0.00034804154797088855,0.001014486406678792,1529.6103697815631,0
0.00035006568317901747,0.001017451360586284,1531.8755933733466,0
0.00035208981838714644,0.0010204163144937762,1534.1408169651304,0
0.00035411395359527515,0.0010233812684012683,1536.4060405569137,0
0.0003561380888034043,0.0010263462223087606,1538.6712641486974,0
0.00035816606617729985,0.0010293138694889114,1540.936487740481,0
0.00036022008741692306,0.0010322997728390852,1543.2017113322645,0
0.0003622741086565459,0.0010352856761892586,1545.466934924048,0
0.00036432812989616904,0.0010382715795394322,1547.7321585158318,0
0.0003663821511357919,0.0010412574828896058,1549.997382107615,0
0.0003684361723754147,0.0010442433862397791,1552.2626056993986,0
0.0003704901936150378,0.0010472292895899527,1554.5278292911823,0
0.0003725522053672934,0.0010502211021099252,1556.793052882966,0
0.0003746365354387444,0.0010532294195456401,1559.0582764747496,0
0.00037672086551019556,0.0010562377369813553,1561.323500066533,0
0.0003788051955816469,0.001059246054417071,1563.5887236583167,0
0.000380889525653098,0.001062254371852786,1565.8539472501002,0
0.0003829738557245494,0.0010652626892885017,1568.1191708418837,0
0.00038505818579600046,0.0010682710067242166,1570.3843944336672,0
0.0003871538452429255,0.0010712880352083337,1572.649618025451,0
0.00038926782957464666,0.001074319153521036,1574.9148416172343,0
0.00039138181390636776,0.0010773502718337384,1577.1800652090178,0
0.0003934957982380892,0.0010803813901464412,1579.4452888008016,0
0.0003956097825698106,0.0010834125084591439,1581.7105123925853,0
0.0003977237669015317,0.0010864436267718463,1583.9757359843688,0
0.0003998377512332528,0.0010894747450845487,1586.2409595761521,0
0.0004019662774821476,0.0010925167708939565,1588.506183167936,0
0.00040411035217692153,0.0010955704591698852,1590.7714067597194,0
0.0004062544268716957,0.0010986241474458143,1593.036630351503,0
0.0004083985015664696,0.001101677835721743,1595.3018539432865,0
0.0004105425762612438,0.0011047315239976721,1597.5670775350702,0
0.0004126866509560177,0.0011077852122736008,1599.8323011268535,0
0.00041483072565079156,0.0011108389005495295,1602.097524718637,0
0.0004169917179232236,0.0011139063668747413,1604.3627483104208,0
0.000419165575473619,0.0011169843109667702,1606.6279719022045,0
0.000421339433024014,0.0011200622550587987,1608.893195493988,0
0.00042351329057440897,0.0011231401991508272,1611.1584190857714,0
