pressure,epsilon,muB,phase_index
1.0699e-07,1.41715e-05,828.0,1
1.2789746333272712e-07,2.0433194455454274e-05,830.4455843132264,1
1.4880492666545424e-07,2.6694888910908543e-05,832.8911686264529,1
2.0090810423461552e-07,3.402879512720119e-05,835.3367529396794,1
2.78888005646154e-07,4.2252096836268253e-05,837.7823372529058,1
3.6080395295969997e-07,5.053943500868656e-05,840.2279215661322,1
4.810173835516399e-07,5.944984401042386e-05,842.6735058793587,1
6.0123081414358e-07,6.836025301216117e-05,845.1190901925852,1
7.504713038300836e-07,7.710572185086835e-05,847.5646745058116,1
9.160539918088441e-07,8.57583295822269e-05,850.010258819038,1
1.0883341702031715e-06,9.430585331578163e-05,852.4558431322645,1
1.2898486872234884e-06,0.0001023946886473598,854.901427445491,1
1.4913632042438057e-06,0.00011048352397893794,857.3470117587174,1
1.7224684033897113e-06,0.00011815254526110735,859.7925960719438,1
1.964352588265843e-06,0.0001256686410504233,862.2381803851703,1
2.2160989393085164e-06,0.00013304363059814679,864.6837646983968,1
2.493256601929084e-06,0.0001400550393046899,867.1293490116232,1
2.7704142645496713e-06,0.0001470664480112335,869.5749333248498,1
3.074882927331176e-06,0.00015372342424876405,872.0205176380762,1
3.3850971455162404e-06,0.0001603058367070287,874.4661019513027,1
3.7071392774018834e-06,0.00016675243830142068,876.9116862645292,1
4.049081691271976e-06,0.0001729705402164917,879.3572705777556,1
4.39102410514207e-06,0.0001791886421315627,881.802854890982,1
4.7625900802674764e-06,0.00018511939351633586,884.2484392042085,1
5.1367534750617135e-06,0.00019102494975617654,886.694023517435,1
5.520575426090082e-06,0.00019681208174894763,889.1396078306614,1
5.915465963133684e-06,0.00020246350101890554,891.5851921438878,1
6.310747361182638e-06,0.00020811284800741772,894.0307764571143,1
6.7366968190042155e-06,0.00021359959793361836,896.4763607703408,1
7.162646276825794e-06,0.000219086347859819,898.9219450835672,1
7.603429553935958e-06,0.00022446932509695964,901.3675293967935,1
8.055906672400488e-06,0.00022977049593352492,903.81311371002,1
8.511011516036145e-06,0.00023505256623270723,906.2586980232466,1
8.988329657162275e-06,0.00024017317142747935,908.7042823364729,1
9.465647798288403e-06,0.0002452937766222514,911.1498666496993,1
9.959099671368626e-06,0.00025030371070189524,913.5954509629258,1
1.0461148376264871e-05,0.0002552546738648065,916.0410352761523,1
1.0967924022749075e-05,0.00026017394998212274,918.4866195893787,1
1.1493728726066618e-05,0.00026496566484650444,920.9322039026051,1
1.201953342938416e-05,0.0002697573797108861,923.3777882158316,1
1.2562319808855662e-05,0.00027443701794381504,925.8233725290581,1
1.3110901054077053e-05,0.0002790784108924104,928.2689568422845,1
1.3666007250950184e-05,0.00028367820563673577,930.7145411555109,1
1.4236920756925188e-05,0.00028817722481856283,933.1601254687374,1
1.4807834262900191e-05,0.00029267624400038984,935.6057097819639,1
1.539736668161254e-05,0.0002970614847364036,938.0512940951903,1
1.5990477941203925e-05,0.00030142485550832375,940.4968784084167,1
1.6591143039509288e-05,0.00030576785337774426,942.9424627216432,1
1.7203855657371184e-05,0.0003100783587687601,945.3880470348697,1
1.7816568275233084e-05,0.0003143888641597759,947.8336313480961,1
1.844889354386071e-05,0.00031844440129214543,950.2792156613227,1
1.9082650414737878e-05,0.00032248132731798804,952.724799974549,1
1.9725801570165012e-05,0.0003264947091132421,955.1703842877756,1
2.0379188331129675e-05,0.00033048243813465036,957.6159686010019,1
2.1033055410001792e-05,0.00033446735213611505,960.0615529142285,1
2.1705525880557382e-05,0.00033834323643493197,962.5071372274549,1
2.237799635111297e-05,0.000342219120733749,964.9527215406814,1
2.30613060225461e-05,0.0003460313588111155,967.3983058539079,1
2.3752733847503048e-05,0.0003497959282639421,969.8438901671343,1
2.4446402687395452e-05,0.00035354779943623017,972.2894744803607,1
2.515676341091063e-05,0.0003572050892571832,974.7350587935872,1
2.5867124134425803e-05,0.0003608623790781362,977.1806431068137,1
2.6587272036630586e-05,0.00036445063554510856,979.6262274200401,1
2.7312351101737533e-05,0.0003680041103119652,982.0718117332665,1
2.8041384797293172e-05,0.0003715364408270551,984.517396046493,1
2.8785156278500872e-05,0.00037498997271497774,986.9629803597195,1
2.9528927759708575e-05,0.00037844350460290054,989.4085646729459,1
3.028528891253239e-05,0.0003818238903133188,991.8541489861723,1
3.10456659112269e-05,0.0003851809439000847,994.2997332993988,1
3.1810832817778555e-05,0.0003885092158050431,996.7453176126253,1
3.2586926771659404e-05,0.00039177182907757993,999.1909019258517,1
3.336302072554025e-05,0.0003950344423501168,1001.6364862390781,1
3.4152897986477354e-05,0.0003982238708427401,1004.0820705523046,1
3.4945181708511754e-05,0.000401400521826667,1006.5276548655311,1
3.574343625290784e-05,0.000404542703923013,1008.9732391787575,1
3.655072363470389e-05,0.0004076327404625132,1011.4188234919839,1
3.735801101649994e-05,0.00041072277700201343,1013.8644078052104,1
3.817930080052058e-05,0.0004137361218031814,1016.3099921184369,1
3.9001412499228644e-05,0.0004167449649434825,1018.7555764316633,1
3.9830621056004424e-05,0.000419715931481628,1021.2011607448896,1
4.0667182082029794e-05,0.00042264765719658535,1023.6467450581162,1
4.1504297545930075e-05,0.0004255665568230403,1026.0923293713427,1
4.2355544305756375e-05,0.0004281585501171519,1028.537913684569,1
4.320679106558273e-05,0.0004307505434112637,1030.9834979977957,1
4.406550478048405e-05,0.00043361403852643077,1033.4290823110218,1
4.4929529718347016e-05,0.00043667065208031705,1035.8746666242487,1
4.579544627174721e-05,0.00043968386095714386,1038.3202509374748,1
4.667391646095364e-05,0.0004424090163171108,1040.7658352507015,1
4.7552386650159936e-05,0.0004451341716770774,1043.2114195639278,1
4.843869999105155e-05,0.00044781837142454737,1045.6570038771542,1
4.932874594600719e-05,0.0004504830800922389,1048.1025881903809,1
5.022186532146638e-05,0.0004531351351113055,1050.5481725036072,1
5.11256228524715e-05,0.0004557433915411001,1052.9937568168336,1
5.2029380383476615e-05,0.0004583516479708946,1055.4393411300603,1
5.294283271434505e-05,0.00046091934708823447,1057.8849254432866,1
5.385916870066786e-05,0.0004634749826955561,1060.330509756513,1
5.477938903780973e-05,0.00046601512229128524,1062.7760940697394,1
5.570796517362024e-05,0.0004685219277318195,1065.2216783829658,1
5.663654130943076e-05,0.00047102873317235374,1067.6672626961924,1
5.757575210852202e-05,0.00047349704958319966,1070.1128470094188,1
5.8516637685375784e-05,0.00047595930462949467,1072.5584313226452,1
5.9462253849233884e-05,0.00047840444120919796,1075.0040156358718,1
6.0414662204176796e-05,0.0004808249990429524,1077.4495999490982,1
6.136707055911969e-05,0.00048324555687670684,1079.8951842623246,1
6.233081993781115e-05,0.00048562963773349227,1082.340768575551,1
6.329507714875164e-05,0.00048801208521169893,1084.7863528887774,1
6.426514294359958e-05,0.000490376977584777,1087.231937202004,1
6.524093108457694e-05,0.0004927245754865201,1089.6775215152304,1
6.621729023142196e-05,0.0004950702303679375,1092.1231058284568,1
6.720442180763883e-05,0.0004973792287972704,1094.5686901416834,1
6.819155338385568e-05,0.0004996882272266031,1097.0142744549098,1
6.918533704985936e-05,0.0005019877122429635,1099.4598587681362,1
7.018361233859682e-05,0.0005042807736145217,1101.9054430813626,1
7.11834982580298e-05,0.0005065690785648832,1104.351027394589,1
7.219299470279113e-05,0.0005088290022689972,1106.7966117078156,1
7.320249114755245e-05,0.0005110889259731112,1109.242196021042,1
7.421934631457126e-05,0.0005133321687815883,1111.6877803342686,1
7.523950550693818e-05,0.0005155679219607398,1114.133364647495,1
7.626231628554534e-05,0.0005177985031958425,1116.5789489607214,1
7.729367625406684e-05,0.0005200124091551291,1119.0245332739478,1
7.832503622258848e-05,0.0005222263151144161,1121.4701175871744,1
7.936443894625517e-05,0.0005244246719599444,1123.9157019004006,1
8.040606629291849e-05,0.0005266187279265557,1126.3612862136274,1
8.145125731774196e-05,0.0005288068668426365,1128.8068705268536,1
8.250368599512204e-05,0.000530982988524284,1131.2524548400802,1
8.355611467250207e-05,0.0005331591102059314,1133.6980391533066,1
8.461782166678639e-05,0.000535321048245642,1136.143623466533,1
8.568083564826881e-05,0.0005374809883110837,1138.5892077797596,1
8.674835442466272e-05,0.0005396348575962464,1141.034792092986,1
8.782201484985537e-05,0.000541780450233717,1143.4803764062124,1
8.889567527504805e-05,0.0005439260428711877,1145.925960719439,1
8.997926852135255e-05,0.0005460589872684842,1148.3715450326654,1
9.106317186884379e-05,0.0005481915367896177,1150.8171293458918,1
9.215232389611142e-05,0.0005503178990138214,1153.2627136591182,1
9.324639272239796e-05,0.00055243846517182,1155.7082979723446,1
9.434111939545532e-05,0.0005545583927183336,1158.1538822855712,1
9.544564309468093e-05,0.0005566688097014324,1160.5994665987976,1
9.655016679390652e-05,0.0005587792266845311,1163.045050912024,1
9.76609586142543e-05,0.0005608843767565007,1165.4906352252506,1
9.8775765995517e-05,0.0005629861526750261,1167.936219538477,1
9.989215149936675e-05,0.0005650864268317347,1170.3818038517034,1
0.00010101706729579079,0.0005671785834519613,1172.8273881649297,1
0.00010214198309221484,0.0005692707400721881,1175.2729724781561,1
0.00010327409677733345,0.0005713583138743044,1177.7185567913828,1
0.00010440925549605607,0.0005734439489363624,1180.1641411046091,1
0.0001055469344131724,0.0005755279682260633,1182.6097254178355,1
0.00010669220154705635,0.0005776071224896912,1185.0553097310622,1
0.0001078374686809403,0.0005796862767533193,1187.5008940442885,1
0.00010899087858261985,0.0005817643928951565,1189.946478357515,1
0.0001101463764108808,0.0005838422428471508,1192.3920626707413,1
0.00011130523878786069,0.0005859156113877809,1194.8376469839677,1
0.00011247055971311316,0.0005879803774636997,1197.2832312971946,1
0.00011363588063836547,0.0005900451435396181,1199.7288156104207,1
0.00011481026156329982,0.0005921098733755381,1202.1743999236473,1
0.00011598577242319058,0.0005941745986917178,1204.6199842368737,1
0.00011716565211413692,0.0005962376190982178,1207.0655685501001,1
0.00011835118986971192,0.0005982984314794965,1209.5111528633265,1
0.00011953672762528708,0.0006003592438607755,1211.9567371765531,1
0.00012073215493766165,0.0006024179341914048,1214.4023214897793,1
0.00012192776034865959,0.0006044765863065404,1216.8479058030061,1
0.0001231286043946281,0.0006065341820714141,1219.2934901162323,1
0.0001243341144220946,0.0006085908369593605,1221.739074429459,1
0.0001255403907833431,0.0006106472240921299,1224.1846587426853,1
0.00012675604998570953,0.0006127003328828222,1226.6302430559117,1
0.00012797170918807583,0.0006147534416735144,1229.0758273691383,1
0.0001292028360758795,0.0006168053333348606,1231.5214116823647,1
0.00013044335871876362,0.0006188564856581023,1233.966995995591,1
0.0001316838882379862,0.0006209076379813438,1236.4125803088177,1
0.0001329244516406089,0.0006229587903045854,1238.8581646220441,1
0.00013416501504323153,0.0006250099426278269,1241.3037489352705,1
0.00013540554929030005,0.0006270610949510685,1243.749333248497,1
0.00013664607193318416,0.0006291122472743101,1246.1949175617233,1
0.00013788660525109955,0.0006311633995975517,1248.64050187495,1
0.0001391271686537222,0.0006332145519207932,1251.0860861881763,1
0.0001403677320563449,0.0006352657042440349,1253.5316705014027,1
0.00014162829868684225,0.0006373161974823383,1255.9772548146293,1
0.00014289360325076705,0.0006393665346108087,1258.4228391278557,1
0.00014416252624569636,0.0006414168862130032,1260.868423441082,1
0.00014543802074425962,0.0006434672641012123,1263.3140077543085,1
0.00014671351524282288,0.0006455176419894212,1265.7595920675349,1
0.0001479979407057283,0.0006475686446776051,1268.2051763807617,1
0.00014928333982076002,0.0006496197154813694,1270.6507606939879,1
0.00015057319740548796,0.0006516710786438026,1273.0963450072145,1
0.00015186854189672678,0.0006537228016033837,1275.5419293204409,1
0.00015316388638796582,0.0006557745245629652,1277.9875136336673,1
0.0001544692471324194,0.0006578273018649901,1280.4330979468937,1
0.00015577465927908121,0.000659880084577774,1282.8786822601203,1
0.00015708541263425536,0.0006619335073527347,1285.3242665733464,1
0.00015840068863764718,0.0006639874720979366,1287.7698508865733,1
0.00015985784233327408,0.0007146128749469548,1290.2154351997995,0
0.00016152545341400088,0.0007176062412046203,1292.661019513026,0
0.00016319306449472746,0.0007205996074622855,1295.1066038262525,0
0.00016486067557545427,0.0007235929737199509,1297.5521881394789,0
0.00016652828665618085,0.0007265863399776159,1299.9977724527052,0
0.00016820909196318886,0.0007295791137102647,1302.4433567659319,0
0.00016990876323698446,0.0007325710402119314,1304.888941079158,0
0.00017160843451078034,0.0007355629667135986,1307.3345253923849,0
0.0001733081057845761,0.0007385548932152657,1309.7801097056113,0
0.00017500777705837186,0.0007415468197169326,1312.2256940188377,0
0.0001767074483321676,0.0007445387462185996,1314.671278332064,0
0.0001784272961172959,0.000747532362869987,1317.1168626452904,0
0.0001801593986383694,0.0007505270060783539,1319.562446958517,0
0.0001818915011594429,0.0007535216492867209,1322.0080312717434,0
0.00018362360368051638,0.0007565162924950879,1324.4536155849698,0
0.00018535570620158989,0.000759510935703455,1326.8991998981965,0
0.00018708780872266341,0.0007625055789118218,1329.3447842114228,0
0.00018884495032859186,0.0007655027348347661,1331.7903685246492,0
0.0001906093533626796,0.0007685006194543257,1334.2359528378756,0
0.00019237375639676727,0.0007714985040738854,1336.681537151102,0
0.000194138159430855,0.0007744963886934449,1339.1271214643286,0
0.0001959025624649427,0.0007774942733130046,1341.572705777555,0
0.0001976669654990304,0.0007804921579325642,1344.0182900907814,0
0.0001994593508743673,0.0007834964078574626,1346.463874404008,0
0.0002012558832367629,0.0007865016011215414,1348.9094587172344,0
0.00020305241559915847,0.0007895067943856204,1351.3550430304608,0
0.0002048489479615542,0.0007925119876496994,1353.8006273436874,0
0.00020664548032394968,0.0007955171809137781,1356.2462116569136,0
0.00020844201268634536,0.0007985223741778573,1358.6917959701404,0
0.00021026867080489226,0.0008015349834239448,1361.1373802833666,0
0.00021209806515980504,0.0008045482662424923,1363.5829645965932,0
0.00021392745951471758,0.0008075615490610391,1366.0285489098196,0
0.00021575685386963033,0.0008105748318795866,1368.474133223046,0
0.0002175862482245428,0.0008135881146981335,1370.9197175362724,0
0.0002194156425794556,0.0008166013975166807,1373.365301849499,0
0.00022127412334153,0.0008196236465665583,1375.8108861627252,0
0.0002231352977449948,0.0008226467259634673,1378.256470475952,0
0.0002249964721484594,0.0008256698053603757,1380.7020547891782,0
0.00022685764655192418,0.0008286928847572846,1383.1476391024048,0
0.00022871882095538873,0.000831715964154193,1385.5932234156312,0
0.00023057999535885354,0.000834739043551102,1388.0388077288576,0
0.0002324697035260352,0.0008377731040031775,1390.484392042084,0
0.000234363769856442,0.000840808841669352,1392.9299763553106,0
0.00023625783618684863,0.0008438445793355267,1395.375560668537,0
0.0002381519025172553,0.0008468803170017012,1397.8211449817636,0
0.0002400459688476619,0.0008499160546678756,1400.26672929499,0
0.00024194003517806855,0.0008529517923340502,1402.7123136082164,0
0.0002438592898459624,0.0008559976862964251,1405.1578979214428,0
0.00024578559371493506,0.0008590464225970123,1407.6034822346692,0
0.0002477118975839077,0.0008620951588975994,1410.0490665478958,0
0.0002496382014528804,0.0008651438951981864,1412.4946508611222,0
0.0002515645053218531,0.0008681926314987734,1414.9402351743486,0
0.0002534908091908258,0.0008712413677993606,1417.3858194875752,0
0.0002554383804595174,0.0008743000027798236,1419.8314038008016,0
0.0002573971052298443,0.0008773638290363073,1422.276988114028,0
0.00025935583000017114,0.0008804276552927911,1424.7225724272544,0
0.00026131455477049794,0.0008834914815492748,1427.1681567404808,0
0.0002632732795408248,0.0008865553078057586,1429.6137410537074,0
0.00026523200431115165,0.0008896191340622424,1432.0593253669338,0
0.00026720669699840574,0.0008926909905979668,1434.5049096801604,0
0.0002691976150967675,0.0008957710069069778,1436.9504939933868,0
0.00027118853319512955,0.0008988510232159892,1439.3960783066132,0
0.00027317945129349126,0.000901931039525,1441.8416626198396,0
0.0002751703693918533,0.0009050110558340114,1444.2872469330662,0
0.000277161287490215,0.0009080910721430223,1446.7328312462923,0
0.00027916200825438384,0.0009111765614390103,1449.1784155595192,0
0.0002811852699457389,0.0009142746356994722,1451.6239998727453,0
0.0002832085316370943,0.0009173727099599345,1454.069584185972,0
0.0002852317933284494,0.0009204707842203965,1456.5151684991984,0
0.00028725505501980483,0.0009235688584808587,1458.9607528124247,0
0.0002892783167111599,0.0009266669327413206,1461.4063371256511,0
0.00029130421990731956,0.0009297665171308514,1463.8519214388778,0
0.0002933599552124435,0.000932883156319923,1466.297505752104,0
0.0002954156905175677,0.0009359997955089951,1468.7430900653308,0
0.0002974714258226916,0.0009391164346980666,1471.188674378557,0
0.00029952716112781585,0.0009422330738871387,1473.6342586917835,0
0.00030158289643293987,0.0009453497130762106,1476.07984300501,0
0.00030363863173806394,0.0009484663522652824,1478.5254273182363,0
0.0003057215297374327,0.0009515993614207862,1480.971011631463,0
0.00030780990687649125,0.0009547356726542062,1483.4165959446893,0
0.00030989828401554987,0.0009578719838876259,1485.8621802579157,0
0.00031198666115460843,0.0009610082951210457,1488.3077645711423,0
0.00031407503829366704,0.0009641446063544654,1490.7533488843687,0
0.00031616341543272566,0.0009672809175878854,1493.1989331975951,0
0.00031826959745595487,0.0009704285457382173,1495.6445175108215,0
0.000320389883588485,0.0009735851385654072,1498.090101824048,0
0.0003225101697210152,0.000976741731392597,1500.5356861372745,0
0.0003246304558535454,0.000979898324219787,1502.981270450501,0
0.0003267507419860756,0.0009830549170469767,1505.4268547637273,0
0.0003288710281186058,0.0009862115098741666,1507.872439076954,0
0.00033099971941309356,0.0009893736666235276,1510.3180233901803,0
0.0003331524839226723,0.0009925517589962412,1512.7636077034067,0
0.00033530524843225105,0.000995729851368955,1515.209192016633,0
0.00033745801294182974,0.0009989079437416688,1517.6547763298595,0
0.00033961077745140865,0.0010020860361143827,1520.1003606430863,0
0.00034176354196098724,0.001005264128487096,1522.5459449563125,0
0.0003439163064705661,0.00100844222085981,1524.9915292695391,0
0.00034609959204025693,0.0010116418290035554,1527.4371135827655,0
0.0003482848921275442,0.001014842857278161,1529.882697895992,0
0.0003504701922148311,0.001018043885552766,1532.3282822092183,0
0.00035265549230211835,0.0010212449138273716,1534.773866522445,0
0.0003548407923894053,0.0010244459421019766,1537.219450835671,0
0.00035702609247669257,0.0010276469703765822,1539.665035148898,0
0.00035923072553504186,0.0010308615506334643,1542.110619462124,0
0.0003614482912273986,0.0010340851963788476,1544.5562037753507,0
0.00036366585691975493,0.0010373088421242306,1547.001788088577,0
0.0003658834226121117,0.0010405324878696141,1549.4473724018035,0
0.000368100988304468,0.001043756133614997,1551.8929567150299,0
0.0003703185539968248,0.0010469797793603805,1554.3385410282565,0
0.0003725439907507561,0.0010502092459387287,1556.7841253414826,0
0.00037479427851255445,0.0010534570904149549,1559.2297096547095,0
0.0003770445662743526,0.0010567049348911806,1561.6752939679357,0
0.000379294854036151,0.0010599527793674068,1564.1208782811623,0
0.0003815451417979494,0.001063200623843633,1566.566462594389,0
0.0003837954295597475,0.0010664484683198588,1569.012046907615,0
0.0003860457173215456,0.0010696963127960846,1571.4576312208414,0
0.0003883237454245737,0.0010729654865552604,1573.903215534068,0
0.0003906060485662224,0.0010762379473507277,1576.3487998472947,0
