pressure,epsilon,muB,phase_index
1.098895e-08,4.831669e-06,822.0,1
2.9530474586333014e-08,8.928760596804153e-06,824.4576083613226,1
4.807199917266603e-08,1.3025852193608307e-05,826.9152167226453,1
8.159723915425913e-08,1.867518315579992e-05,829.3728250839679,1
1.2696235887234552e-07,2.5551067541066564e-05,831.8304334452905,1
1.796599567520557e-07,3.272391246741909e-05,834.2880418066134,1
2.8758668810246536e-07,4.213350096090278e-05,836.745650167936,1
3.95513419452875e-07,5.154308945438646e-05,839.2032585292586,1
5.034401508032846e-07,6.0952677947870147e-05,841.6608668905812,1
6.113668821536943e-07,7.036226644135383e-05,844.1184752519039,1
7.405742573934115e-07,7.959706540574849e-05,846.5760836132265,1
9.392855331327512e-07,8.826099094632327e-05,849.0336919745491,1
1.137996808872091e-06,9.692491648689806e-05,851.4913003358718,1
1.3367083119841121e-06,0.00010558885826837867,853.9489086971944,1
1.5354198744444274e-06,0.00011425280428902313,856.406517058517,1
1.7556749477467811e-06,0.00012274281050390866,858.8641254198398,1
2.0156571442632307e-06,0.00013091206453750247,861.3217337811624,1
2.2756393407796805e-06,0.0001390813185710963,863.779342142485,1
2.5840873069116263e-06,0.0001461893632856838,866.2369505038076,1
2.8973160461844924e-06,0.0001531927279126662,868.6945588651303,1
3.210544593429487e-06,0.0001601961117424357,871.1521672264529,1
3.523772923100959e-06,0.00016719951732955743,873.6097755877755,1
3.838365249900734e-06,0.00017418567711797333,876.0673839490981,1
4.201340897623493e-06,0.0001805600988051539,878.5249923104208,1
4.564316545346251e-06,0.00018693452049233444,880.9826006717434,1
4.944515652895473e-06,0.000193146606618005,883.4402090330661,1
5.336881839011289e-06,0.00019924401488272516,885.8978173943888,1
5.73345519979746e-06,0.00020529672243490202,888.3554257557114,1
6.1549120960862525e-06,0.00021108504548804645,890.813034117034,1
6.576368992375044e-06,0.00021687336854119094,893.2706424783566,1
7.0174210847259265e-06,0.000222547079759484,895.7282508396793,1
7.466742754216787e-06,0.00022817242241813347,898.1858592010019,1
7.926497499518585e-06,0.0002337174067027079,900.6434675623245,1
8.415666421378539e-06,0.0002390358350371675,903.1010759236472,1
8.904835343238525e-06,0.0002443542633716274,905.55868428497,1
9.39400359300093e-06,0.00024967269170608704,908.0162926462926,1
9.883171695658093e-06,0.00025499112004054666,910.4739010076153,1
1.0386679764043813e-05,0.0002602021298196115,912.9315093689379,1
1.0913681109017965e-05,0.0002652371549498712,915.3891177302605,1
1.1440682453992117e-05,0.00027027218008013093,917.8467260915832,1
1.1990281638834435e-05,0.0002751466699101716,920.3043344529058,1
1.2541383929805292e-05,0.00028001048165792586,922.7619428142284,1
1.3109761163177829e-05,0.0002847562002001809,925.219551175551,1
1.3695675476586821e-05,0.0002893820335382804,927.6771595368737,1
1.4281589789995814e-05,0.0002940078646302483,930.1347678981963,1
1.4867504103404848e-05,0.00029863365700820877,932.5923762595191,1
1.5453418416813837e-05,0.00030325944938616896,935.0499846208418,1
1.6059021894569897e-05,0.0003077567194623996,937.5075929821644,1
1.6677032573177763e-05,0.000312173000727557,939.965201343487,1
1.730053695921679e-05,0.00031655086973103244,942.4228097048097,1
1.7950480162466105e-05,0.0003207438772765637,944.8804180661323,1
1.860042336571542e-05,0.000324936884822095,947.3380264274549,1
1.9250369561689387e-05,0.0003291299222948727,949.7956347887775,1
1.9900316860952687e-05,0.00033332297080054357,952.2532431501003,1
2.0558932994397742e-05,0.00033746167470816586,954.7108515114229,1
2.1238850827627325e-05,0.00034146683905461335,957.1684598727455,1
2.1918768660856905e-05,0.00034547200340106083,959.6260682340682,1
2.261503640977165e-05,0.0003493733311971714,962.0836765953908,1
2.3314238276609748e-05,0.0003532560247269462,964.5412849567134,1
2.402080531684616e-05,0.00035709110434189474,966.998893318036,1
2.4738127949335076e-05,0.00036085665187311327,969.4565016793587,1
2.5455450581823984e-05,0.0003646221994043319,971.9141100406813,1
2.6190893142904207e-05,0.00036827706674345687,974.3717184020039,1
2.6926991903273628e-05,0.00037192792588448034,976.8293267633265,1
2.7672084195272524e-05,0.00037552168800380716,979.2869351246493,1
2.842535754207365e-05,0.00037906351125386657,981.7445434859719,1
2.9180030116577802e-05,0.00038259676326560075,984.2021518472945,1
2.9950314209253217e-05,0.00038603438392114016,986.6597602086172,1
3.0720598301928634e-05,0.0003894720045766795,989.1173685699398,1
3.150140324050488e-05,0.0003928454711718854,991.5749769312624,1
3.228810415703393e-05,0.0003961829852468403,994.032585292585,1
3.307799705123935e-05,0.0003995014226187639,996.4901936539077,1
3.38807010942146e-05,0.00040274329476832417,998.9478020152305,1
3.4683405137189794e-05,0.00040598516691788423,1001.4054103765532,1
3.5497895878713285e-05,0.0004091581694747674,1003.8630187378758,1
3.6316148390587784e-05,0.00041230919203523724,1006.3206270991984,1
3.713919483289909e-05,0.00041543284664867877,1008.778235460521,1
3.7972586212279336e-05,0.0004184974433151087,1011.2358438218437,1
3.880597759165958e-05,0.00042156203998153864,1013.6934521831663,1
3.965206022825231e-05,0.0004246598346823719,1016.1510605444889,1
4.049995149696436e-05,0.000427762360437845,1018.6086689058116,1
4.1357254439687646e-05,0.00043073828353913353,1021.0662772671342,1
4.2226838198202306e-05,0.0004335490092618389,1023.5238856284568,1
4.309642195671696e-05,0.00043635973498454413,1025.9814939897794,1
4.396600978040226e-05,0.0004391705013589556,1028.4391023511023,1
4.483559763493085e-05,0.0004419812680418003,1030.896710712425,1
4.571633379263484e-05,0.0004447677472692558,1033.3543190737475,1
4.6606151859991054e-05,0.0004475344408421541,1035.8119274350702,1
4.749745551881171e-05,0.00045029434211298335,1038.2695357963928,1
4.840081910425275e-05,0.00045299910395517627,1040.7271441577154,1
4.9304182689693784e-05,0.00045570386579736925,1043.184752519038,1
5.021626994867774e-05,0.0004583695668232912,1045.6423608803607,1
5.1132687530531325e-05,0.000461015878546624,1048.0999692416835,1
5.2052019384656636e-05,0.0004636506762924548,1050.557577603006,1
5.2981282066212075e-05,0.0004662462384031263,1053.0151859643288,1
5.391054474776752e-05,0.00046884180051379783,1055.4727943256512,1
5.484920849040853e-05,0.00047139379987050004,1057.930402686974,1
5.579043972468361e-05,0.00047393390195248433,1060.3880110482964,1
5.673598502731343e-05,0.00047645940300599597,1062.8456194096193,1
5.7689754160245195e-05,0.00047895707038360814,1065.3032277709417,1
5.864352329317695e-05,0.0004814547377612203,1067.7608361322646,1
5.9608244147092065e-05,0.0004839144327639173,1070.218444493587,1
6.057414567330089e-05,0.0004863700340784115,1072.6760528549098,1
6.154547743673554e-05,0.0004888078935948719,1075.1336612162324,1
6.25231509069951e-05,0.0004912250333385114,1077.591269577555,1
6.350105776941279e-05,0.0004936414863471097,1080.0488779388777,1
6.449046631959767e-05,0.0004960240966932726,1082.5064863002003,1
6.547987486978255e-05,0.0004984067070394354,1084.964094661523,1
6.647597253268991e-05,0.0005007747212345639,1087.4217030228456,1
6.74769441302148e-05,0.0005031321001348839,1089.8793113841682,1
6.847947173543102e-05,0.0005054836615542654,1092.336919745491,1
6.949179338757131e-05,0.0005077986057502132,1094.7945281068137,1
7.050411503971159e-05,0.000510113549946161,1097.2521364681363,1
7.152413054358443e-05,0.0005124153576026692,1099.709744829459,1
7.254751143335065e-05,0.0005147114191743742,1102.1673531907816,1
7.357375256382035e-05,0.0005170012832106875,1104.6249615521042,1
7.460838110785356e-05,0.0005192729734994761,1107.0825699134268,1
7.564300965188676e-05,0.0005215446637882647,1109.5401782747495,1
7.668658495040519e-05,0.0005237993395942026,1111.997786636072,1
7.77322194838832e-05,0.0005260500992517806,1114.4553949973947,1
7.87818651454505e-05,0.0005282936157493794,1116.9130033587173,1
7.983829677166259e-05,0.0005305248783806243,1119.37061172004,1
8.089472839787473e-05,0.0005327561410118693,1121.8282200813628,1
8.196130910237234e-05,0.000534971174261171,1124.2858284426854,1
8.302865250970868e-05,0.0005371849878730504,1126.743436804008,1
8.410130854015968e-05,0.0005393903541339337,1129.2010451653307,1
8.517952276848096e-05,0.0005415868825670051,1131.6586535266533,1
8.625823382260352e-05,0.0005437829285132415,1134.116261887976,1
8.73469502306555e-05,0.0005459692578716135,1136.5738702492986,1
8.843566663870748e-05,0.0005481555872299855,1139.0314786106212,1
8.953069677552059e-05,0.0005503331061571068,1141.4890869719438,1
9.062983344302459e-05,0.0005525048946660077,1143.9466953332667,1
9.173073085311851e-05,0.0005546748772850726,1146.404303694589,1
9.284057040503607e-05,0.0005568356884766262,1148.861912055912,1
9.395040995695363e-05,0.0005589964996681797,1151.3195204172343,1
9.506784377251821e-05,0.0005611503800574969,1153.7771287785572,1
9.61881855041665e-05,0.0005633016065764414,1156.2347371398796,1
9.731146624246738e-05,0.0005654502021824813,1158.6923455012025,1
9.844224052160946e-05,0.0005675920897896526,1161.1499538625249,1
9.957301480075156e-05,0.000569733977396824,1163.6075622238477,1
0.00010071223906953796,0.000571881062349968,1166.06517058517,1
0.0001018530690628918,0.000574029134938182,1168.522778946493,1
0.0001029983075311732,0.0005761637598804908,1170.9803873078156,1
0.00010415018857012512,0.0005782781222740153,1173.4379956691382,1
0.00010530206960907704,0.0005803924846675398,1175.8956040304608,1
0.00010646355959862872,0.0005825143381205116,1178.3532123917835,1
0.0001076254758717227,0.000584636523900653,1180.810820753106,1
0.00010879269840661204,0.0005867560248391689,1183.2684291144287,1
0.00010996489567468422,0.0005888730086816122,1185.7260374757514,1
0.00011113786119450825,0.0005909896435969653,1188.1836458370742,1
0.00011232033945755863,0.0005931019579835221,1190.6412541983968,1
0.00011350281772060902,0.0005952142723700789,1193.0988625597195,1
0.00011469180722034577,0.0005973245114620743,1195.556470921042,1
0.00011588456647837434,0.0005994335490374827,1198.0140792823647,1
0.00011707932254742788,0.0006015420048647972,1200.4716876436873,1
0.00011828248568085273,0.0006036480113898932,1202.92929600501,1
0.00011948564881427757,0.0006057540179149893,1205.3869043663326,1
0.00012069622074049183,0.0006078579954760849,1207.8445127276552,1
0.00012190925526750132,0.0006099612986319836,1210.3021210889779,1
0.0001231255313068321,0.0006120640319907945,1212.7597294503005,1
0.00012434905162951658,0.0006141654919404221,1215.217337811623,1
0.00012557257195220105,0.0006162669518900497,1217.6749461729457,1
0.0001268049068336272,0.0006183673811049859,1220.1325545342686,1
0.00012803858527087183,0.0006204676532105722,1222.5901628955912,1
0.00012927661195883262,0.0006225669997848816,1225.0477712569138,1
0.0001305204894707767,0.000624665101003082,1227.5053796182365,1
0.0001317643669827208,0.0006267632022212825,1229.962987979559,1
0.00013301845134256905,0.0006288622313347471,1232.4205963408817,1
0.00013427269176977005,0.0006309612746361529,1234.8782047022046,1
0.00013553243129408256,0.000633059761348782,1237.335813063527,1
0.00013679678887570435,0.0006351577806467039,1239.7934214248498,1
0.00013806213802498152,0.0006372557999446256,1242.2510297861722,1
0.00013933620315963053,0.0006393538192425473,1244.708638147495,1
0.00014061026829427953,0.0006414518385404692,1247.1662465088175,1
0.00014189150545460498,0.0006435489376539645,1249.6238548701403,1
0.00014317642502618318,0.0006456455643071481,1252.0814632314627,1
0.00014446350088413249,0.000647743098397513,1254.5390715927856,1
0.00014575825088915595,0.0006498438620247717,1256.996679954108,1
0.00014705300089417941,0.0006519446256520302,1259.4542883154309,1
0.00014835594018996833,0.0006540448475752304,1261.9118966767533,1
0.00014966121695080613,0.0006561449148801199,1264.369505038076,1
0.0001509698435209115,0.0006582452854599226,1266.8271133993985,1
0.00015228507359561275,0.0006603462538878781,1269.2847217607214,1
0.0001536003036703139,0.0006624472223158334,1271.742330122044,1
0.000154924846817928,0.000664549437375596,1274.1999384833666,1
0.0001562504807680254,0.0006666517984482895,1276.6575468446893,1
0.0001575818949392741,0.000668754884371867,1279.115155206012,1
0.00015892026749271104,0.0006708588428899953,1281.5727635673347,1
0.00016025870382719817,0.0006729628236808713,1284.0303719286574,1
0.00016160223735819392,0.0006750685844451311,1286.48798028998,1
0.00016294577088918962,0.0006771743452093911,1288.9455886513026,1
0.000164296601044651,0.0006792703069811796,1291.4031970126252,1
0.00016565291413912558,0.0006813589054470494,1293.8608053739479,1
0.00016701056457128834,0.0006834526993637001,1296.3184137352705,1
0.0001683771996208805,0.0006855813978059991,1298.7760220965931,1
0.00016974383467047266,0.000687710096248298,1301.2336304579158,1
0.000171117460173851,0.0006898272660793126,1303.6912388192384,1
0.00017249425333800328,0.0006919392118246151,1306.148847180561,1
0.00017387360372302386,0.0006940517337026825,1308.6064555418836,1
0.00017526075980243305,0.0006961660141759284,1311.0640639032063,1
0.00017664791588184226,0.0006982802946491742,1313.521672264529,1
0.00017804341792789053,0.0007003965873910565,1315.9792806258517,1
0.00017944093692255666,0.000702513366432803,1318.4368889871744,1
0.00018110283282144087,0.0007521581155158746,1320.894497348497,0
0.00018284345146028154,0.0007551674822951173,1323.3521057098196,0
0.00018458407009912215,0.0007581768490743599,1325.8097140711423,0
0.0001863246887379629,0.0007611862158536029,1328.2673224324649,0
0.00018807627449321098,0.0007641966832015535,1330.7249307937877,0
0.00018984935245493383,0.0007672093073288281,1333.1825391551101,0
0.0001916224304166567,0.0007702219314561026,1335.640147516433,0
0.00019339550837837958,0.0007732345555833772,1338.0977558777554,0
0.0001951685863401024,0.0007762471797106518,1340.5553642390782,0
0.00019694166430182528,0.0007792598038379264,1343.0129726004006,0
0.0001987296750235825,0.0007822758248066705,1345.4705809617235,0
0.00020053504028182836,0.0007852957935124097,1347.928189323046,0
0.0002023404055400742,0.000788315762218149,1350.3857976843688,0
0.00020414577079832006,0.0007913357309238884,1352.8434060456912,0
0.00020595113605656595,0.0007943556996296275,1355.301014407014,0
0.00020775650131481181,0.0007973756683353668,1357.7586227683364,0
0.00020957961459337212,0.0008004000060268565,1360.2162311296593,0
0.00021141800341459353,0.0008034281040604596,1362.673839490982,0
0.00021325639223581487,0.0008064562020940626,1365.1314478523045,0
0.00021509478105703617,0.0008094843001276656,1367.5890562136271,0
0.00021693316987825748,0.0008125123981612685,1370.0466645749498,0
0.00021877155869947883,0.0008155404961948716,1372.5042729362724,0
0.00022062800122059101,0.000818574159496426,1374.9618812975953,0
0.00022249832634129804,0.0008216121022746011,1377.4194896589179,0
0.00022436865146200505,0.0008246500450527764,1379.8770980202405,0
0.00022623897658271208,0.0008276879878309517,1382.3347063815631,0
0.00022810930170341908,0.0008307259306091269,1384.7923147428858,0
0.0002299796268241261,0.0008337638733873021,1387.2499231042084,0
0.0002318680373092905,0.0008368087762141689,1389.707531465531,0
0.00023377141607457456,0.0008398594394977134,1392.1651398268536,0
0.0002356747948398586,0.000842910102781258,1394.6227481881763,0
0.0002375781736051427,0.0008459607660648025,1397.080356549499,0
0.00023948155237042674,0.000849011429348347,1399.5379649108215,0
0.00024138493113571078,0.0008520620926318916,1401.9955732721442,0
0.0002433042087127074,0.0008551191665426193,1404.4531816334668,0
0.0002452399835168031,0.0008581828923701313,1406.9107899947894,0
0.0002471757583208988,0.0008612466181976435,1409.368398356112,0
0.00024911153312499456,0.000864310344025156,1411.826006717435,0
0.0002510473079290903,0.0008673740698526682,1414.2836150787575,0
0.00025298308273318594,0.0008704377956801804,1416.7412234400801,0
0.0002549317389842935,0.0008735075170370943,1419.1988318014028,0
0.0002569000940915171,0.0008765864070123252,1421.6564401627256,0
0.00025886844919874064,0.0008796652969875557,1424.114048524048,0
0.0002608368043059642,0.0008827441869627865,1426.5716568853709,0
0.0002628051594131877,0.0008858230769380171,1429.0292652466933,0
0.00026477351452041124,0.0008889019669132478,1431.4868736080161,0
0.00026675046015297617,0.0008919851770711065,1433.9444819693385,0
0.0002687511668711132,0.0008950803366994611,1436.4020903306614,0
0.00027075187358925027,0.0008981754963278156,1438.8596986919838,0
0.0002727525803073873,0.0009012706559561703,1441.3173070533066,0
0.0002747532870255243,0.0009043658155845249,1443.774915414629,0
0.0002767539937436614,0.0009074609752128795,1446.232523775952,0
0.00027875804543150815,0.0009105580023919616,1448.6901321372743,0
0.00028079125476431513,0.000913671308756143,1451.1477404985972,0
0.00028282446409712216,0.0009167846151203245,1453.6053488599196,0
0.00028485767342992913,0.0009198979214845058,1456.0629572212424,0
0.00028689088276273627,0.0009230112278486875,1458.520565582565,0
0.0002889240920955433,0.0009261245342128688,1460.9781739438877,0
0.0002909573014283503,0.0009292378405770502,1463.4357823052103,0
0.00029302025985037864,0.0009323681542789898,1465.893390666533,0
0.00029508610245789586,0.0009355001168487789,1468.3509990278556,0
0.0002971519450654133,0.0009386320794185683,1470.8086073891784,0
0.0002992177876729305,0.0009417640419883574,1473.266215750501,0
0.00030128363028044774,0.0009448960045581465,1475.7238241118237,0
0.00030334947288796507,0.0009480279671279357,1478.1814324731463,0
0.00030543804729132445,0.0009511736293230834,1480.639040834469,0
0.000307536692220795,0.0009543253606575037,1483.0966491957915,0
0.00030963533715026555,0.0009574770919919239,1485.5542575571142,0
0.0003117339820797362,0.0009606288233263443,1488.0118659184368,0
0.0003138326270092067,0.0009637805546607646,1490.4694742797594,0
0.0003159312719386773,0.0009669322859951849,1492.927082641082,0
0.0003180443316412861,0.0009700931794667105,1495.3846910024047,0
0.00032017504244913716,0.0009732652921121168,1497.8422993637273,0
0.0003223057532569882,0.000976437404757523,1500.29990772505,0
0.0003244364640648393,0.0009796095174029293,1502.7575160863726,0
0.0003265671748726905,0.0009827816300483358,1505.2151244476954,0
0.0003286978856805416,0.000985953742693742,1507.672732809018,0
0.00033083450915239446,0.0009891297693151663,1510.1303411703407,0
0.00033299785802165483,0.0009923234872115379,1512.5879495316633,0
0.0003351612068909152,0.0009955172051079094,1515.045557892986,0
0.0003373245557601757,0.0009987109230042812,1517.5031662543088,0
0.00033948790462943605,0.0010019046409006527,1519.9607746156312,0
0.0003416512534986964,0.0010050983587970245,1522.418382976954,0
0.00034381460236795674,0.001008292076693396,1524.8759913382764,0
0.00034600709516877505,0.0010115063395562944,1527.3335996995993,0
0.0003482031395813394,0.0010147231061220406,1529.7912080609217,0
0.00035039918399390365,0.0010179398726877867,1532.2488164222445,0
0.0003525952284064679,0.001021156639253533,1534.706424783567,0
0.0003547912728190322,0.001024373405819279,1537.1640331448898,0
0.00035698731723159653,0.0010275901723850252,1539.6216415062122,0
0.0003592022807431908,0.0010308202008179682,1542.079249867535,0
0.0003614307493990629,0.0010340596960563653,1544.5368582288575,0
0.000363659218054935,0.0010372991912947626,1546.9944665901803,0
0.0003658876867108071,0.0010405386865331597,1549.4520749515027,0
0.0003681161553666792,0.0010437781817715568,1551.9096833128256,0
0.0003703446240225516,0.0010470176770099545,1554.3672916741484,0
0.0003725815093079273,0.0010502633965414796,1556.824900035471,0
0.00037484286091574864,0.001053527209487073,1559.2825083967937,0
0.00037710421252357004,0.0010567910224326663,1561.7401167581163,0
0.00037936556413139145,0.0010600548353782596,1564.197725119439,0
0.0003816269157392128,0.001063318648323853,1566.6553334807616,0
0.00038388826734703425,0.0010665824612694464,1569.1129418420842,0
0.00038614961895485565,0.0010698462742150397,1571.5705502034068,0
0.000388440346545158,0.0010731326740724908,1574.0281585647294,0
