pressure,epsilon,muB,phase_index
2.912047e-08,3.961594e-06,912.0,1
3.711023129864547e-08,7.844007461049448e-06,914.2772476398798,1
4.5099992597290945e-08,1.1726420922098894e-05,916.5544952797595,1
6.625326806041215e-08,1.727337154547733e-05,918.8317429196393,1
1.1028371074721619e-07,2.571315872730311e-05,921.108990559519,1
1.5431415343402028e-07,3.4152945909128885e-05,923.3862381993988,1
2.427230907484326e-07,4.888373156270233e-05,925.6634858392786,1
3.475059725398381e-07,6.593565182315272e-05,927.9407334791583,1
4.616051057815884e-07,8.336129526266592e-05,930.2179811190381,1
6.63714819004287e-07,0.00010431749967049917,932.4952287589178,1
8.658245322269855e-07,0.0001252737040783324,934.7724763987976,1
1.1110016409879139e-06,0.00014447614153290762,937.0497240386774,1
1.4065407901686334e-06,0.00016162776349044466,939.3269716785571,1
1.7020799393493528e-06,0.00017877938544798172,941.6042193184369,1
2.0597233024769714e-06,0.00019321623873136369,943.8814669583167,1
2.4304307526538982e-06,0.00020708202006931823,946.1587145981964,1
2.8130532687785657e-06,0.00022062189783619894,948.4359622380762,1
3.245999035577226e-06,0.00023278532270096139,950.7132098779559,1
3.6789448023758867e-06,0.00024494874756572383,952.9904575178357,1
4.1430055471339005e-06,0.0002563140675200272,955.2677051577155,1
4.631844839088317e-06,0.00026704381317897604,957.5449527975952,1
5.120684131042732e-06,0.0002777735588379248,959.822200437475,1
5.654994319180536e-06,0.00028744892668162476,962.0994480773547,1
6.193155379143287e-06,0.0002970350006216986,964.3766957172345,1
6.744050133146327e-06,0.0003063582656256042,966.6539433571143,1
7.326554138694091e-06,0.0003150291516933377,968.931190996994,1
7.909058144241854e-06,0.0003237000377610712,971.2084386368738,1
8.517864739633262e-06,0.00033187802264505377,973.4856862767535,1
9.14068513739746e-06,0.0003397933938541299,975.7629339166333,1
9.764156958555843e-06,0.00034769748208213707,978.0401815565131,1
1.0423896095057769e-05,0.0003549734021539349,980.3174291963928,1
1.1083635231559696e-05,0.0003622493222257327,982.5946768362726,1
1.175639597882997e-05,0.00036931337918190015,984.8719244761523,1
1.2450144290668409e-05,0.00037603596603133456,987.1491721160321,1
1.3143892602506844e-05,0.00038275855288076886,989.4264197559119,1
1.3861143006070225e-05,0.0003891176338968545,991.7036673957916,1
1.4586305949100804e-05,0.00039535433200819323,993.9809150356714,1
1.5314793597121353e-05,0.00040154201363286725,996.2581626755511,1
1.606928369434085e-05,0.00040734633832564744,998.5354103154309,1
1.6823773791560345e-05,0.0004131506630184277,1000.8126579553107,1
1.75913336733755e-05,0.0004187794402500092,1003.0899055951904,1
1.837313176520989e-05,0.00042421697625625947,1005.3671532350702,1
1.9154929857044275e-05,0.00042965451226250966,1007.64440087495,1
1.9958221587517033e-05,0.00043476898712594184,1009.9216485148297,1
2.076549069420348e-05,0.0004398236798498009,1012.1988961547095,1
2.1577762485025074e-05,0.00044482403663096743,1014.4761437945892,1
2.2408957873581183e-05,0.00044961885744498897,1016.753391434469,1
2.3240153262137296e-05,0.0004544136782590104,1019.0306390743488,1
2.4084270571429985e-05,0.0004590133841733809,1021.3078867142285,1
2.4937965166668113e-05,0.0004634684775936597,1023.5851343541083,1
2.5791659761906238e-05,0.0004679235710139385,1025.862381993988,1
2.666526004483811e-05,0.00047217486471159135,1028.1396296338678,1
2.7540140633952584e-05,0.00047641305029417157,1030.4168772737476,1
2.8421246366667435e-05,0.0004805839636038728,1032.6941249136273,1
2.9316550071698896e-05,0.00048460144593602127,1034.971372553507,1
3.0211853776730357e-05,0.0004886189282681699,1037.2486201933868,1
3.111948649385461e-05,0.0004925049062242214,1039.5258678332666,1
3.2033190359816306e-05,0.0004963261277639397,1041.8031154731464,1
3.2947548649395075e-05,0.0005001411787559627,1044.0803631130261,1
3.387979690197084e-05,0.0005037875456310655,1046.3576107529059,1
3.4812045154546624e-05,0.0005074339125061682,1048.6348583927856,1
3.575121021120344e-05,0.0005110197611460037,1050.9121060326654,1
3.670072759171498e-05,0.0005145150326402004,1053.1893536725452,1
3.7650244972226505e-05,0.0005180103041343972,1055.466601312425,1
3.861264067725081e-05,0.0005214009446914557,1057.7438489523047,1
3.9578975531582855e-05,0.0005247595813272598,1060.0210965921844,1
4.054737542524117e-05,0.0005281027736766507,1062.2983442320642,1
4.152947262865392e-05,0.0005313435247929635,1064.575591871944,1
4.2511569832066664e-05,0.0005345842759092764,1066.8528395118237,1
4.350148347161202e-05,0.0005377731748601119,1069.1300871517035,1
4.449933163786727e-05,0.0005409094382638817,1071.4073347915833,1
4.5497179804122514e-05,0.0005440457016676514,1073.684582431463,1
4.650783218131006e-05,0.0005471059114589887,1075.9618300713428,1
4.752054318382818e-05,0.0005501538935625856,1078.2390777112223,1
4.853681855235348e-05,0.0005531824274112911,1080.516325351102,1
4.956525015441231e-05,0.0005561446331871193,1082.7935729909818,1
5.0593681756471144e-05,0.0005591068389629477,1085.0708206308616,1
5.162934799158296e-05,0.0005620296586774658,1087.3480682707414,1
5.267000082264248e-05,0.0005649253308680821,1089.625315910621,1
5.371065365370199e-05,0.0005678210030586986,1091.9025635505009,1
5.4765620578245016e-05,0.0005706583289697859,1094.1798111903806,1
5.5821227335473085e-05,0.0005734930468319081,1096.4570588302604,1
5.6881243603054334e-05,0.0005763106675917174,1098.7343064701402,1
5.7950525232359876e-05,0.0005790923635379579,1101.01155411002,1
5.901980686166542e-05,0.0005818740594841983,1103.2888017498997,1
6.0098343842864554e-05,0.0005846238602245336,1105.5660493897794,1
6.11810840057218e-05,0.0005873591762271752,1107.8432970296592,1
6.226452011313783e-05,0.0005900923786799442,1110.120544669539,1
6.336040758570263e-05,0.0005927877669406332,1112.3977923094187,1
6.445629505826745e-05,0.0005954831552013221,1114.6750399492985,1
6.555760104721467e-05,0.0005981638306187583,1116.9522875891782,1
6.666644605885038e-05,0.0006008240354034112,1119.229535229058,1
6.77752910704861e-05,0.0006034842401880642,1121.5067828689378,1
6.889455184690913e-05,0.0006061206281654243,1123.7840305088175,1
7.001669218934901e-05,0.0006087504316940848,1126.0612781486973,1
7.114060979217892e-05,0.0006113763252498873,1128.338525788577,1
7.227470568472817e-05,0.0006139798265683072,1130.6157734284568,1
7.340880157727743e-05,0.000616583327886727,1132.8930210683366,1
7.454959725818122e-05,0.0006191750289956724,1135.1702687082163,1
7.569673039346878e-05,0.0006217555680670568,1137.447516348096,1
7.684386352875635e-05,0.0006243361071384411,1139.7247639879758,1
7.800195767770642e-05,0.0006268997292115702,1142.0020116278556,1
7.916155874382235e-05,0.0006294610255403977,1144.2792592677354,1
8.032420204769989e-05,0.0006320182686439147,1146.5565069076151,1
8.149625206758047e-05,0.0006345629790190983,1148.833754547495,1
8.266830208746105e-05,0.0006371076893942818,1151.1110021873747,1
8.385191160090324e-05,0.0006396428902581488,1153.3882498272544,1
8.504292350279856e-05,0.0006421720014869992,1155.6654974671342,1
8.623393540469386e-05,0.0006447011127158497,1157.942745107014,1
8.742405190951459e-05,0.0006472188279819328,1160.2199927468937,1
8.861414532152848e-05,0.0006497362493395652,1162.4972403867735,1
8.981059340780107e-05,0.0006522501467766764,1164.7744880266532,1
9.101937163670019e-05,0.0006547572066575474,1167.051735666533,1
9.222814986559929e-05,0.0006572642665384184,1169.3289833064127,1
9.34455883563505e-05,0.0006597651959711775,1171.6062309462925,1
9.46666447454413e-05,0.0006622635643568896,1173.8834785861723,1
9.588856530587415e-05,0.0006647613219829426,1176.160726226052,1
9.712186569644203e-05,0.0006672510368276232,1178.4379738659318,1
9.835516608700991e-05,0.0006697407516723038,1180.7152215058115,1
9.959364055005733e-05,0.0006722291928482473,1182.9924691456913,1
0.00010083881299165444,0.0006747159852251234,1185.269716785571,1
0.00010208398543325158,0.0006772027776019994,1187.5469644254508,1
0.00010333893869187231,0.0006796846446062991,1189.8242120653306,1
0.00010459632097623192,0.0006821652884145475,1192.1014597052103,1
0.00010585570409773144,0.0006846453389146218,1194.37870734509,1
0.00010712511784045506,0.0006871224150349011,1196.6559549849699,1
0.00010839453158317871,0.0006895994911551803,1198.9332026248496,1
0.00010967036071230541,0.0006920751752576551,1201.2104502647294,1
0.00011095184386752042,0.0006945496325431483,1203.4876979046091,1
0.00011223332702273542,0.0006970240898286418,1205.764945544489,1
0.00011352559976527451,0.000699498955552772,1208.0421931843687,1
0.00011481911437885356,0.0007019738682877932,1210.3194408242484,1
0.000116115771551677,0.0007044473290808851,1212.5966884641282,1
0.00011742127966949272,0.0007069167005133162,1214.873936104008,1
0.00011872678778730847,0.0007093860719457471,1217.1511837438877,1
0.00012003986659145817,0.0007118568718095618,1219.4284313837675,1
0.00012135744412176525,0.0007143285204896326,1221.7056790236472,1
0.00012267502165207235,0.0007168001691697035,1223.982926663527,1
0.00012400454043661577,0.0007192712904757702,1226.2601743034068,1
0.00012533414942528693,0.0007217424077980583,1228.5374219432865,1
0.00012666803542926968,0.0007242139731886173,1230.8146695831663,1
0.00012800959996805018,0.0007266863429971074,1233.091917223046,1
0.00012935116450683067,0.0007291587128055975,1235.3691648629258,1
0.00013070260752062803,0.000731632125342006,1237.6464125028056,1
0.00013205783554524778,0.0007341059374073349,1239.9236601426853,1
0.00013341384376175654,0.0007365799001535006,1242.200907782565,1
0.0001347779150980445,0.0007390554201545591,1244.4781554224448,1
0.00013614198643433246,0.0007415309401556178,1246.7554030623246,1
0.00013751225367483367,0.0007440074411748435,1249.0326507022044,1
0.0001388899884969609,0.00074648512456116,1251.3098983420841,1
0.00014026772331908818,0.0007489628079474764,1253.5871459819639,1
0.00014165537050063825,0.0007514422935809608,1255.8643936218436,1
0.00014304521268938418,0.0007539221783066625,1258.1416412617234,1
0.0001444372331004185,0.0007564038223657511,1260.4188889016032,1
0.00014583891697689182,0.0007588932715315403,1262.696136541483,1
0.00014724060085336512,0.0007613827206973294,1264.9733841813627,1
0.00014864910067326423,0.0007638672923990157,1267.2506318212425,1
0.00015006319554937487,0.0007663478602990095,1269.5278794611222,1
0.00015147729042548554,0.0007688284281990032,1271.805127101002,1
0.00015290228306274017,0.000771317464422943,1274.0823747408817,1
0.00015432829553483287,0.0007738072931300057,1276.3596223807615,1
0.00015575777894853807,0.0007762981832871025,1278.6368700206413,1
0.00015719620242026812,0.0007787918074068981,1280.914117660521,1
0.00015863462589199817,0.0007812854315266939,1283.1913653004008,1
0.00016008066167413535,0.000783781625719135,1285.4686129402805,1
0.00016153088887946546,0.0007862792350223005,1287.7458605801603,1
0.0001629812412543208,0.0007887768863053991,1290.02310822004,1
0.00016444380355103356,0.0007912786326084437,1292.3003558599198,1
0.0001659063658477463,0.0007937803789114881,1294.5776034997996,1
0.00016737337337038532,0.0007962837779267359,1296.8548511396793,1
0.00016884777735482547,0.0007987899269085509,1299.1320987795589,1
0.0001703221813392656,0.0008012960758903659,1301.4093464194389,1
0.000171805833481131,0.0008038055137305967,1303.6865940593184,1
0.0001732927243734632,0.0008063161033453095,1305.9638416991984,1
0.00017478090107560376,0.0008088271871931675,1308.241089339078,1
0.00017627993728868194,0.0008113424451655419,1310.518336978958,1
0.00017777897350176013,0.0008138577031379164,1312.7955846188374,1
0.00017928380300903538,0.0008163758935184648,1315.0728322587174,1
0.00018079513635936893,0.0008188973759677217,1317.350079898597,1
0.00018230646970970245,0.0008214188584169786,1319.627327538477,1
0.00018382811950891874,0.0008239638306267685,1321.9045751783565,1
0.000185351787950635,0.0008265133991302505,1324.1818228182365,1
0.00018687797362869653,0.0008290670610119842,1326.459070458116,1
0.00018841412897830474,0.0008316369349735883,1328.736318097996,1
0.000189950284327913,0.0008342068089351926,1331.0135657378755,1
0.00019149360369176776,0.0008367855034548783,1333.2908133777555,1
0.00019304239776577733,0.0008393709386086884,1335.568061017635,1
0.00019459119183978688,0.0008419563737624986,1337.845308657515,1
0.00019615144771780235,0.000844554650381908,1340.1225562973946,1
0.00019771253892906726,0.0008471538628839394,1342.3998039372746,1
0.00019927747805012895,0.0008497568104538382,1344.677051577154,1
0.00020085151161881388,0.0008523685857720163,1346.954299217034,1
0.00020242554518749874,0.0008549803610901944,1349.2315468569136,1
0.00020400790227249096,0.0008576000072863309,1351.5087944967936,1
0.00020559449865732254,0.0008602236622463637,1353.7860421366731,1
0.00020718146001319886,0.0008628519795532691,1356.0632897765531,1
0.00020878118852608708,0.0008656433917561064,1358.3405374164327,1
0.00021038091703897528,0.0008684348039589436,1360.6177850563126,1
0.0002119854936456345,0.0008711075497434776,1362.8950326961922,1
0.0002135975572499054,0.0008735970368633941,1365.1722803360722,1
0.00021520962085417626,0.0008760865239833106,1367.4495279759517,1
0.00021683167097742538,0.0008787046846662003,1369.7267756158317,1
0.00021845690466388022,0.000881363864689415,1372.0040232557112,1
0.00022011003312106934,0.0008177328312001604,1374.2812708955912,0
0.0002218430974831411,0.0008205478232593371,1376.5585185354707,0
0.0002235761618452129,0.0008233628153185138,1378.8357661753507,0
0.00022530922620728468,0.0008261778073776904,1381.1130138152303,0
0.00022704229056935647,0.0008289927994368669,1383.3902614551102,0
0.0002287753549314283,0.0008318077914960436,1385.6675090949898,0
0.00023050841929350005,0.0008346227835552202,1387.9447567348698,0
0.00023226648843198818,0.0008374473985590596,1390.2220043747493,0
0.00023403018067411077,0.0008402741775820528,1392.4992520146293,0
0.0002357938729162334,0.0008431009566050461,1394.7764996545088,0
0.000237557565158356,0.0008459277356280394,1397.0537472943888,0
0.00023932125740047858,0.0008487545146510326,1399.3309949342683,0
0.00024108494964260123,0.0008515812936740259,1401.6082425741483,0
0.00024285705742385863,0.0008544114659621835,1403.8854902140279,0
0.00024465076820110923,0.0008572503488858183,1406.1627378539079,0
0.0002464444789783598,0.000860089231809453,1408.4399854937874,0
0.00024823818975561044,0.0008629281147330878,1410.7172331336674,0
0.000250031900532861,0.0008657669976567226,1412.994480773547,0
0.00025182561131011164,0.0008686058805803573,1415.271728413427,0
0.0002536193220873623,0.0008714447635039921,1417.5489760533064,0
0.00025543423159208966,0.0008742935131447547,1419.8262236931864,0
0.00025725813164586295,0.0008771464473387816,1422.103471333066,0
0.00025908203169963624,0.0008799993815328084,1424.380718972946,0
0.0002609059317534096,0.000882852315726835,1426.6579666128255,0
0.0002627298318071829,0.0008857052499208619,1428.9352142527055,0
0.00026455373186095617,0.0008885581841148887,1431.212461892585,0
0.00026638023587965574,0.0008914124278451303,1433.489709532465,0
0.00026823411330116533,0.0008942804376833326,1435.7669571723445,0
0.00027008799072267487,0.000897148447521535,1438.0442048122245,0
0.00027194186814418446,0.0009000164573597373,1440.321452452104,0
0.000273795745565694,0.0009028844671979398,1442.598700091984,0
0.0002756496229872036,0.000905752477036142,1444.8759477318636,0
0.0002775035004087131,0.0009086204868743444,1447.1531953717435,0
0.00027937051363539,0.0009114958306451754,1449.430443011623,0
0.00028125450834642056,0.0009143806554535672,1451.707690651503,0
0.0002831385030574511,0.0009172654802619591,1453.9849382913826,0
0.00028502249776848166,0.0009201503050703509,1456.2621859312626,0
0.0002869064924795122,0.0009230351298787427,1458.5394335711421,0
0.00028879048719054277,0.0009259199546871346,1460.8166812110221,0
0.00029067448190157327,0.0009288047794955265,1463.0939288509016,0
0.0002925812914974486,0.0009317026474075098,1465.3711764907816,0
0.00029449552456906785,0.0009346047592665392,1467.6484241306612,0
0.0002964097576406871,0.0009375068711255685,1469.9256717705412,0
0.0002983239907123063,0.0009404089829845979,1472.2029194104207,0
0.0003002382237839255,0.0009433110948436273,1474.4801670503007,0
0.00030215245685554474,0.0009462132067026566,1476.7574146901802,0
0.00030406800767629927,0.0009491161127210912,1479.0346623300602,0
0.00030601263574959016,0.0009520365425405037,1481.3119099699397,0
0.0003079572638228811,0.000954956972359916,1483.5891576098197,0
0.000309901891896172,0.0009578774021793284,1485.8664052496993,0
0.0003118465199694629,0.0009607978319987406,1488.1436528895792,0
0.00031379114804275384,0.0009637182618181531,1490.4209005294588,0
0.00031573577611604473,0.0009666386916375654,1492.6981481693388,0
0.0003176894786445889,0.0009695648892482839,1494.9753958092183,0
0.0003196638193226267,0.0009725042046204438,1497.2526434490983,0
0.00032163816000066453,0.0009754435199926035,1499.5298910889778,0
0.00032361250067870236,0.0009783828353647633,1501.8071387288578,0
0.0003255868413567402,0.0009813221507369231,1504.0843863687373,0
0.00032756118203477796,0.000984261466109083,1506.3616340086173,0
0.0003295355227128158,0.0009872007814812427,1508.6388816484969,0
0.00033152621164795275,0.0009901509188257325,1510.9161292883769,0
0.0003335307951219886,0.000993110253867236,1513.1933769282564,0
0.0003355353785960244,0.0009960695889087395,1515.4706245681364,0
0.0003375399620700603,0.000999028923950243,1517.747872208016,0
0.00033954454554409617,0.0010019882589917463,1520.025119847896,0
0.0003415491290181321,0.0010049475940332498,1522.3023674877754,0
0.0003435537124921679,0.0010079069290747534,1524.5796151276554,0
0.0003455810974824069,0.0010108823380075307,1526.856862767535,0
0.00034761597701581305,0.0010138630302061636,1529.134110407415,0
0.00034965085654921915,0.0010168437224047967,1531.4113580472945,0
0.00035168573608262526,0.0010198244146034296,1533.6886056871745,0
0.00035372061561603137,0.0010228051068020625,1535.965853327054,0
0.00035575549514943754,0.0010257857990006957,1538.243100966934,0
0.0003577903746828437,0.0010287664911993288,1540.5203486068135,0
0.00035985365075608914,0.001031767088740156,1542.7975962466935,0
0.0003619185749592277,0.0010347688415833433,1545.074843886573,0
0.00036398349916236624,0.001037770594426531,1547.352091526453,0
0.0003660484233655048,0.0010407723472697183,1549.6293391663326,0
0.0003681133475686433,0.001043774100112906,1551.9065868062125,0
0.00037017827177178187,0.0010467758529560936,1554.183834446092,0
0.00037224674469774695,0.0010497802301622867,1556.461082085972,0
0.00037434213861522135,0.0010528045160673695,1558.7383297258516,0
0.0003764375325326957,0.0010558288019724522,1561.0155773657316,0
0.0003785329264501701,0.001058853087877535,1563.2928250056111,0
0.0003806283203676444,0.0010618773737826176,1565.570072645491,0
0.00038272371428511875,0.0010649016596877003,1567.8473202853706,0
0.00038481910820259316,0.001067925945592783,1570.1245679252506,0
0.00038692258748966005,0.001070956448261184,1572.4018155651302,0
0.0003890477930753764,0.0010740036560727376,1574.6790632050102,0
0.0003911729986610928,0.0010770508638842911,1576.9563108448897,0
0.00039329820424680923,0.0010800980716958446,1579.2335584847697,0
0.0003954234098325256,0.0010831452795073981,1581.5108061246492,0
0.00039754861541824204,0.0010861924873189516,1583.7880537645292,0
0.00039967382100395847,0.0010892396951305053,1586.0653014044087,0
0.0004018113948537897,0.001092296180040702,1588.3425490442887,0
0.00040396685052541097,0.0010953660776192506,1590.6197966841683,0
0.00040612230619703217,0.001098435975197799,1592.8970443240482,0
0.00040827776186865347,0.001101505872776348,1595.1742919639278,0
0.0004104332175402746,0.0011045757703548964,1597.4515396038078,0
0.0004125886732118958,0.001107645667933445,1599.7287872436873,0
0.00041474412888351707,0.001110715565511994,1602.0060348835673,0
0.00041691545732729926,0.0011137983902271282,1604.2832825234468,0
0.0004191008539451115,0.0011168926723742322,1606.5605301633268,0
